2.600554667011975227e-02
1.555819194243607088e-02
-4.934148799378991999e-03
7.631124481242227905e-03
-4.096484059636986100e-06
1.502819038522683684e-02
6.820665158315053836e-03
-7.547052129833499261e-03
1.280319156567957112e-02
1.075053179060428063e-02
1.465886511468044925e-02
2.318551486625654301e-02
5.606243836888785692e-02
7.917573515838757792e-02
6.577772785493601893e-02
7.678484337456630004e-02
8.789155458123830422e-02
9.530300278232228806e-02
9.953854661516950419e-02
9.213411629652730472e-02
7.724671268664819179e-02
4.940387614703502933e-02
5.158919389877186096e-02
3.904130291244983786e-02
1.636303453825179582e-02
1.140279585436786191e-03
-7.041482021280984736e-04
1.607392931733259839e-02
-3.403822265127128509e-03
-8.477684711157978947e-03
3.205912376830995225e-03
-9.877017046339060281e-04
8.527387886447627963e-03
-4.010194982472222412e-03
1.381285411925699258e-01
2.507790549401043845e-01
3.985638210476248333e-01
6.154797605951435324e-01
7.959101940361419381e-01
9.429588034317094580e-01
1.002969198421050034e+00
9.448870061289293965e-01
8.035560419268197307e-01
6.099191128467057466e-01
4.056514974060407841e-01
2.567593280804640887e-01
1.346895944743652651e-01
1.604656406312130607e-02
-8.140853468719911820e-03
1.878650542351656752e-02
1.589928656660908116e-02
1.296160870473288818e-01
1.252304518588874538e-01
1.458604501884170901e-01
1.854337667044119453e-01
1.990487956890653332e-01
2.091467593849238027e-01
2.374175393266108880e-01
2.639131463512205400e-01
2.693178746124473832e-01
2.795882422967795877e-01
3.003480351115115354e-01
3.156152782796939338e-01
3.164671029271496905e-01
2.973048173851520759e-01
2.934637646701123148e-01
2.763509221665612636e-01
2.569765387596125161e-01
2.410211000722330688e-01
2.132034214281227358e-01
1.880781731739954998e-01
1.582380525077929090e-01
1.490330105874015654e-01
1.172240469981352951e-01
1.111566814786892898e-01
1.071236627797726194e-02
-8.800794647397369025e-03
-6.710140087261450524e-03
-5.436422422571985866e-03
-3.204533651167014701e-04
-9.868731818407687484e-03
-4.186151420513576152e-03
3.396162456920110567e-04
-1.836598053087073329e-02
-2.779143798027671809e-04
7.076518309393347054e-04
1.111441210659784920e-02
-4.843020982817613715e-03
-5.302256925170647540e-03
-1.826667119360142477e-02
-5.977040459959076339e-03
2.283478477104607367e-03
-1.270211858986449935e-02
4.062970627698026319e-03
-1.579325422249504979e-02
4.072377925810164931e-03
7.850361759386496538e-03
-4.347932043303863632e-03
3.098572113644966226e-03
8.537152976768373758e-03
9.641570985392696608e-03
-5.300545023255792514e-03
-5.903847267051131470e-03
9.117774664207432475e-03
-7.852320815949054289e-03
1.405011164300667102e-02
-1.956936173341064164e-02
2.082363547120524502e-03
-1.029311253714250245e-02
1.473242333465561368e-02
4.241854230723654355e-03
-2.636783440864003472e-03
-1.244630701809169675e-02
2.372118361667567305e-03
-9.393648473042245234e-03
-2.401168818683989924e-03
-2.326548068184770141e-02
-9.870809448259034845e-04
-6.885631286020785745e-03
-2.200547632724213221e-02
2.643207307264089020e-03
9.503239659979524287e-03
5.692255336883267174e-03
-1.278870481302175205e-02
-1.931394028770498650e-02
-8.360473912701244653e-03
2.429845505709529729e-03
3.405156134445264712e-03
-4.443582398635644200e-03
6.998727489423972430e-03
2.304808897802786312e-03
-2.336283072215796300e-02
1.402222740619665960e-02
-5.840170394505064463e-03
1.985138203349139790e-02
-1.056471719865676590e-02
6.646823373407958688e-03
7.898718318232947691e-03
-3.666268070908814715e-03
-5.533780093657871685e-03
-4.850917079685534809e-03
3.987015580998807228e-03
5.417758285363861830e-03
-5.769555696469672729e-03
-1.814786040858182639e-02
-4.733392902857769778e-03
1.067738811166344878e-02
1.211262501990847430e-02
-2.005468506776680523e-02
-7.810310201063214684e-03
5.996758276545203006e-03
9.073564545085956515e-03
1.046330553924881487e-02
6.469995399833792897e-04
-1.280580011748528625e-02
-8.662210590948094327e-03
-1.365536972527590931e-02
1.163271728820921593e-02
-3.911302941037235296e-03
-9.179166898115239184e-03
-1.431685956238554734e-02
-1.230920177844989534e-03
1.548500755963252247e-03
-5.822516564113005243e-03
1.877354087541255670e-02
1.362501234673239685e-02
1.699634212562444943e-02
2.515342940878706468e-02
-1.007726247834833666e-02
6.212231211431620825e-03
-7.496702564874397311e-03
1.547501967848944650e-02
2.393669049993797041e-03
-4.107639372728590782e-03
1.025019617024407192e-02
1.317972330295301420e-02
6.560033118263685140e-03
2.866357625619300742e-02
5.627187445061126309e-02
4.323962332547205689e-02
7.052727019978106970e-02
8.790267197462786619e-02
8.868304387418628199e-02
9.657118167557375565e-02
1.026754961533930810e-01
7.992443836675879043e-02
7.185775829960586170e-02
7.279576157527672953e-02
5.971572821708029388e-02
3.812120569247546414e-02
3.060232850574625546e-02
9.384699797540013017e-03
4.498652841002453127e-03
9.868010721242999328e-03
1.088609524168737512e-02
-1.272883013364654523e-02
9.214333029791202390e-03
2.522757628676034879e-03
5.883998986365082803e-04
-1.734531766618007667e-03
5.704442373685625518e-03
1.823135160886208139e-01
3.011716530133671244e-01
4.878155966457578541e-01
6.765227843007489694e-01
8.552781795393072928e-01
9.759000519863820777e-01
9.877912055489794785e-01
9.061716594643062228e-01
7.446666602106648547e-01
5.420327555799512309e-01
3.566399925553541683e-01
2.082094420319112182e-01
9.623331611626687043e-02
-6.476724247352974584e-03
-6.248138935952750501e-03
-4.700553661854754706e-03
9.309795883855639942e-02
1.026009664617337641e-01
1.405371878303897648e-01
1.743940991827889198e-01
1.858676980854881422e-01
1.950801375354137834e-01
2.315891878243443169e-01
2.538457066543177154e-01
2.610325228805033260e-01
2.889495127661225737e-01
2.875500957603094876e-01
2.918009330319223937e-01
3.019535703697052709e-01
3.051864144345942109e-01
2.884370503977210509e-01
2.813086349179513834e-01
2.735419396520237245e-01
2.581638165000342267e-01
2.341302967775281685e-01
2.023250059817569002e-01
1.909802197160060666e-01
1.517353806326790511e-01
1.423478430952124785e-01
8.632169916170448487e-02
9.717402957171906996e-02
-4.236665847794570360e-03
-5.888632161211153349e-03
9.882829233185603732e-03
5.075859981569312215e-03
-7.349233824131982430e-03
2.882195328913459993e-03
8.583853273304273973e-03
-1.143305981043978535e-02
2.246074926086545371e-03
-8.242145095893363763e-03
-7.951251245004248985e-03
2.894737399585836299e-02
-1.183368639773626704e-02
3.495713892407710782e-03
5.526627442424721093e-03
-2.875932319870599507e-03
-3.254314392697836393e-03
1.654686623039076238e-02
-1.254646636853764749e-02
9.446227901588647238e-03
-1.949169491327984796e-02
3.301487529140473710e-03
2.193883039562465487e-03
1.861252435236402780e-03
-3.728758174863190319e-04
1.326886111925228151e-02
9.769697613601385777e-03
-2.171087569106141396e-02
-5.147629713542140658e-04
1.158328617049039430e-02
8.596168118432086572e-03
1.268449766258129829e-02
-1.776225027488930255e-02
1.995391617233385761e-02
-4.837414735975560827e-03
-2.914816564469497814e-03
1.232436086647790800e-02
5.119825584739393781e-03
1.936341085403331733e-02
-1.791923066064864123e-02
2.323400177533623857e-03
-7.958677959265653666e-05
6.856161767000649131e-03
2.579059656511687240e-02
-1.916529307888701489e-02
2.336343024994477768e-02
-1.203038254526833661e-02
-1.728242862816160863e-04
6.967838816880237568e-03
1.680908499720551235e-03
-2.773756498826520853e-02
9.957033082346680372e-03
-1.161871035362735741e-02
-4.909943096161972428e-03
2.447730499691298713e-03
9.090284202255919169e-03
1.666276651593320834e-02
1.712468985759488715e-04
6.923719257610054870e-03
1.122933546002666087e-02
-6.287737439650387117e-03
-3.172968012013300480e-03
3.124132236220782469e-03
-2.389035270129686705e-03
1.314736429902608160e-02
2.916348885211825746e-03
8.222009997834575992e-03
3.655589704666277473e-03
-3.454603110024077623e-03
4.934500241738430139e-03
-8.235006455067656744e-03
8.786888841112291872e-04
2.430791359571898153e-02
-5.345808930601391590e-03
-7.753408190464229285e-04
-1.043863796749512456e-02
-8.856739119199145971e-03
8.273576372722779224e-03
-3.833492999099507529e-03
6.788845061700739952e-03
2.342937787924912613e-03
-5.550593288634722610e-04
-3.944888771091488965e-03
-1.381738426659391561e-02
2.860781844945090632e-03
-2.628002895811285770e-03
2.206717750391909167e-03
1.105419941339397943e-02
-2.180660979895142348e-02
9.362590874976840609e-04
-1.003201161248061177e-02
-1.470709829576886084e-03
1.516384487013811878e-02
2.038854609400585910e-02
-5.848585707754996865e-03
-1.065452731865380864e-02
-1.803959215458627880e-03
-7.860520894663923855e-03
4.545415030908443038e-03
-3.428706115373693353e-03
1.502044306120092591e-02
2.699322706294544905e-02
3.454971341048326816e-02
5.784849016059090410e-02
7.915045695501848888e-02
7.595624054584097784e-02
7.742108711757827999e-02
8.400086971743898900e-02
1.062789959872205148e-01
9.475221351224889788e-02
8.832776269365057165e-02
5.847194428739396765e-02
4.301400783096415159e-02
4.691689025828538195e-02
2.406764330515970968e-02
2.097949133772017763e-02
8.477762262862386169e-03
-3.562431104751507399e-03
-2.742642258950031553e-03
-5.706096517194664611e-03
4.217566657068554797e-03
-2.357258327722600456e-03
1.428326645613148434e-02
1.019601624312344544e-02
-1.510000792689144417e-02
1.084121781625594083e-01
2.110092497188276739e-01
3.637939873695222870e-01
5.337778350029601659e-01
7.510418418534676732e-01
9.182279942615206858e-01
9.961536171489339120e-01
9.775621285307147801e-01
8.777650777131598137e-01
6.652117090321163495e-01
4.633027775956045091e-01
3.087011170281396266e-01
1.766771255059696455e-01
-9.098968315481062094e-03
-6.084769544909537919e-03
3.811222364014541127e-03
7.450783779150517427e-03
1.220306392136943086e-01
1.205051340000757448e-01
1.558548733767102235e-01
1.735488597586430093e-01
1.868213797602894244e-01
2.120306549201667612e-01
2.124026672106495706e-01
2.512375136546647347e-01
2.637760835472935939e-01
2.808366433727261247e-01
3.089954753484142613e-01
2.808882982600520717e-01
2.979807485488503715e-01
3.028650417013401541e-01
2.714043932512646973e-01
2.952210349378691645e-01
2.723088636778377980e-01
2.583063375705330622e-01
2.236801041170534132e-01
2.021880242827060470e-01
1.728982471811084387e-01
1.547814259664135050e-01
1.155752744189341985e-01
1.131480628273652950e-01
6.597782550007579017e-02
-6.080120557916488672e-03
-2.295505366082578949e-02
2.401341491279333079e-02
1.072510548348543612e-02
-6.303283256996768287e-03
-6.093107744764495251e-03
3.238994119650443447e-03
-2.789713327712481372e-03
-1.460433555590334720e-02
-3.937004655757378978e-03
-2.208780116771058566e-02
-1.308238556850273987e-02
1.302735380982589057e-02
5.648123423642657966e-03
-4.424335033244681907e-03
-5.988182455670260085e-03
1.097292791083401102e-02
-1.012139597477070170e-02
1.675780144734097601e-02
4.271507773045281342e-03
2.514696554949536703e-03
-5.740308791261103903e-03
1.238459625834275593e-03
2.969165563209775864e-03
-5.309425474832273756e-03
-1.763273620160361876e-02
-9.423499660781762101e-04
4.766821730623011823e-03
-1.420040407551601165e-02
1.347592906292558075e-02
1.561214167081769431e-02
7.613975908574810263e-03
9.801229861661089979e-04
1.927199903313001755e-02
-3.631656575959883119e-03
-4.770603772573971807e-03
-1.552057971834806295e-02
1.956283816574119153e-03
1.205319692800550790e-02
5.208473980724798169e-03
3.697986673102114305e-03
-3.890577015242862192e-03
-2.641426669176598786e-03
4.199180715872724221e-03
-1.246404481862545439e-02
-8.439476807376437850e-03
9.026174030921538206e-04
7.042322366698030613e-03
-1.044116070479868263e-02
7.165652210659526067e-03
1.159330791874911559e-02
2.026183566507158348e-02
-7.459483278733159209e-03
-8.992462597140130423e-03
5.874573761850148193e-03
6.229886717996672985e-03
-1.359216684163880393e-03
-5.227642067011227522e-03
-1.445956940206897211e-02
2.137222914656688750e-03
7.384241266481858870e-03
-1.908706566875557160e-03
1.331813982812262223e-02
2.294854453729275757e-03
-1.509012188512854962e-03
1.226288953735231967e-02
-1.372112538550369389e-02
-5.074782221916119065e-03
-1.572064518547559853e-02
-7.357954726447583395e-03
3.520118274933448001e-03
-9.472636452195479836e-04
1.804533010409203192e-02
4.838838953294706123e-04
1.553388428236377253e-02
5.723766665961414410e-03
-3.060499120020774948e-03
-2.462638563152144775e-03
-1.322428987892855512e-02
1.056298704099972730e-02
-4.795711687911757316e-03
-7.634072873328118583e-04
-1.823090340280758949e-03
1.038350251676570593e-02
2.611266774984564998e-02
-2.293641664149971213e-02
-8.996694132338833860e-03
-1.486267243276359097e-02
-4.454165466860903616e-03
-1.244373925034801542e-02
5.854498561060614281e-03
-9.272421689097372355e-03
-7.835559081839638118e-03
2.193691870141731021e-03
-6.320798020957600974e-03
2.079884780842831959e-04
1.089540715606199597e-02
4.357998917944391759e-02
5.872041818986396128e-02
1.201186546552490686e-01
1.812567160818605305e-01
2.877116130392201043e-01
4.229747598261780483e-01
5.985422687900168182e-01
7.852151528436230876e-01
9.616457856431607221e-01
1.104458228034588485e+00
1.177001974980161458e+00
1.174947546883134297e+00
1.138750138009903212e+00
1.011202357392601670e+00
8.497026030081887837e-01
6.606636717315943486e-01
4.894840261277261240e-01
3.741010640777712171e-01
2.194274574041443771e-01
1.310860601230478539e-01
7.733474470120971223e-02
5.963345726279803416e-02
2.555466750127049352e-02
4.079631972422668659e-03
7.734382927271071274e-03
8.674831692638493037e-04
2.672851747866598036e-03
-4.201366276451812612e-03
1.068418391784718841e-01
2.007532185594470830e-01
3.331632473819791107e-01
4.831579185572488222e-01
6.392143455853512846e-01
7.689830314940653277e-01
7.982923918762817594e-01
7.595450298062349503e-01
6.506039456814388666e-01
4.942968176023918581e-01
3.254362969244473658e-01
1.891426593081060870e-01
1.143384790970698728e-01
5.475941629732916649e-03
-1.260666154608823010e-02
-6.544874545099884505e-03
2.178530903880920161e-02
-1.638631006426851224e-03
8.358211558949002473e-03
-1.501897515006812150e-02
-2.274833774892483923e-03
-6.519970599106510861e-03
1.135071258769193223e-02
8.684903545078184739e-03
6.328915841298420747e-03
-3.433865979579583602e-03
-4.195042806543227559e-03
7.998897970352979864e-03
9.249623661274050711e-04
-8.900163315553846072e-03
-4.317725509660012015e-04
2.905368377110022649e-03
6.974142063742915475e-03
3.416342725287541127e-03
5.147114824745677294e-04
-7.167137409756297976e-03
-2.078405480895165192e-02
-3.044654690405416801e-03
4.119639423335670798e-03
-2.162031514430475237e-03
6.424041884910002172e-03
-9.970985412871167727e-03
4.573364635151231858e-03
1.345289204632791648e-02
2.758769369066338580e-03
-1.012006018059387336e-02
-2.694785846786683196e-03
-3.022123132319881438e-04
-1.030548197119118825e-03
8.938799146614374164e-03
5.332897452503619282e-03
1.529573765785837217e-02
1.095338907032638275e-02
-7.841254374351439363e-03
-1.079740827615461619e-02
3.583405092108186973e-03
5.627513827892959702e-03
6.093527105134339227e-03
8.915209900939623580e-03
-1.637954530834462383e-03
-4.916807448345932030e-03
-9.669689462269895732e-04
-2.727703984084690197e-03
4.724617162500920238e-03
-4.581170860011877545e-03
7.659525831734187960e-03
1.801803086057392894e-02
-3.786510510149694933e-03
8.797438177019103675e-03
-3.909811900552564827e-03
1.889098121262735826e-03
1.782965520636693030e-02
-1.397740137060011307e-04
9.887226893139760761e-03
8.329470780645370455e-04
-1.376141067294094078e-02
-7.697413660101704155e-04
-1.039647142520531975e-02
1.565360382856917083e-04
-1.571867494637939127e-03
2.175361403674580529e-03
-6.655230173861132782e-03
-7.672518488894841844e-03
9.502962966265631958e-03
8.085520841976494288e-03
-1.445617075265051565e-02
1.236857027858158722e-02
-6.344856730109054224e-03
-6.781984217649872533e-03
-1.220242271435438910e-02
-1.576379104679496296e-02
1.047900108747393429e-02
8.209296324910380326e-04
-2.673321575201493844e-03
-6.019361164374283264e-03
2.278276060449615451e-03
-4.261616901482924089e-03
1.805917466042879184e-03
-7.570618432957441695e-04
5.405740694714516840e-03
1.149940596480208098e-02
3.568057065949038677e-03
-3.701013425413953806e-04
8.448006566550918250e-03
8.880721246223455961e-03
-4.515133729210122140e-03
4.709416944929310268e-03
-9.699112482189591392e-03
-6.297468276251163947e-03
1.344451115958266189e-03
-1.048731924898368278e-02
-2.068728884651540798e-02
1.814152245856901630e-02
7.013308051292313494e-03
-5.407615720371006067e-03
1.405054141432245281e-02
1.502341374140116377e-02
2.343736427646322777e-04
5.617842054330377498e-03
6.692695353374878212e-03
-1.126145098217523274e-02
6.176712905313434462e-03
8.903097856041996411e-03
-6.740057302283527889e-03
6.899628268380495442e-03
2.725107308219885862e-03
1.470620687813343867e-02
1.230948667365749059e-02
-1.249478371050305179e-05
-2.355824473632201453e-03
-2.356871156090313904e-02
7.960825087693309307e-06
6.262287172931329257e-04
-2.379688001143348466e-03
2.151057497109099112e-04
-1.732906863465310046e-02
-2.746463516624563211e-03
4.506735642199844946e-03
1.930901891276440296e-02
-3.849941271735162970e-03
7.722657392979864754e-03
5.061716961742288631e-04
2.225545735935976696e-02
3.372734824854712460e-02
3.535514897277425295e-02
6.569482786191595258e-02
6.807583865945350532e-02
8.620182281382782197e-02
8.486409943941786160e-02
1.004726222454218193e-01
1.167755875246914293e-01
1.025504612994755371e-01
8.759696789108169235e-02
7.496235037863947792e-02
5.585789820194809324e-02
3.446786067803229991e-02
2.505932022608229129e-02
2.499321881301840367e-02
-1.535811616784846755e-02
-9.813578637766167886e-03
4.639030898416396549e-03
6.794464832700340164e-03
2.980119644333457940e-03
-8.546364249087133602e-03
2.271164965286769349e-03
2.839342150022912837e-03
-9.740437338695314209e-03
1.550632548688875567e-01
3.030834400940520812e-01
4.631732750279439759e-01
6.690199059602575105e-01
8.500050529877362093e-01
9.789948736915496941e-01
9.912847914205750177e-01
9.024125937248798079e-01
7.276147172467465341e-01
5.540249990850585338e-01
3.428697727226842629e-01
1.966101776031314863e-01
1.216190896804055094e-01
3.808707478761403070e-03
-5.893314731228499817e-03
1.789697977184740709e-03
9.564174705640345053e-02
9.670200110778286173e-02
1.230043594310242100e-01
1.314509559539873973e-01
1.665661363108848492e-01
1.910706306266161947e-01
2.092736764762068158e-01
2.303422592005408553e-01
2.669172567654206074e-01
2.810258293151481346e-01
2.834966329289659859e-01
3.021510862297545619e-01
3.002469771742622973e-01
3.233356089300277181e-01
3.023891647605416177e-01
2.946363727819903411e-01
2.663243647527375746e-01
2.466517757152776602e-01
2.395055173993879127e-01
2.079449150792315182e-01
1.794429903094293399e-01
1.607141153644437437e-01
1.540617259601153310e-01
1.212246357260777507e-01
1.120166233944114992e-01
-1.323246912246658349e-03
2.495542394002480541e-02
-1.409993362588655985e-02
3.650371514729718828e-03
4.124763407792512472e-03
-8.685821540426293813e-03
1.912727407288944761e-02
-1.762300558613846217e-03
2.784095030037870080e-02
-1.770728182317757304e-02
-6.069118636632057917e-03
-4.149554273440746351e-03
-1.001338526619155282e-02
-3.284818261485670469e-03
-3.175556465230446566e-03
2.192173447299747215e-04
-1.429207079855412434e-02
-3.776891166305459090e-03
-8.760415684724909280e-03
9.875578249505365027e-04
1.030738904517682943e-02
-2.213890984059438058e-02
-1.021370925218044109e-02
-1.815034530552735170e-02
-8.100475653174031565e-03
-1.041096935196685232e-02
1.416730035060788200e-02
4.875339268112216691e-03
1.915044651718382160e-02
1.771382524165100031e-02
3.333016548311844122e-03
-1.336568402099521172e-02
-1.207504014585542886e-02
1.657988172282300401e-03
5.366737216898604008e-03
-1.277320732176033535e-03
-9.021785818870772453e-03
-1.025152834913804593e-02
1.674126061133017138e-02
-7.863410700150235896e-03
1.568213016732547191e-02
3.481883839277119010e-03
-2.280043339070860625e-03
-1.120458251600036856e-02
8.343471680929137602e-03
3.219810620671519422e-03
2.598156227600571973e-03
2.142848228081299655e-02
7.941788648820263113e-03
-3.506563416221191061e-03
-3.048807431119072899e-03
1.426577308981120083e-02
3.922734883813634027e-03
1.288203017694873088e-02
3.802196774220046888e-03
-2.287972785057735756e-02
7.601666282047119146e-03
-1.145094207844853627e-02
-7.225565338662880491e-03
1.795696374168473386e-02
-1.858885608307581441e-02
-5.476283639974199695e-03
1.336468816065425509e-02
-1.132628894329825754e-02
-9.497279044468570283e-03
-3.647864160163393626e-03
2.990865250577427495e-05
-2.050009137169217597e-03
1.555352047320949322e-03
-2.282562970033658999e-03
-4.922582436519911363e-03
-9.986693664184215918e-03
-7.476280038444109953e-03
-6.467414403723637309e-03
-4.579511002931352728e-03
-1.305569603871363157e-02
2.263909109852814058e-03
-3.146631718065400971e-03
9.438605887945218306e-03
-1.377033080425990944e-02
-6.317286414980405156e-03
1.779307563126407421e-02
-1.551364704898128537e-03
6.827732157229713175e-03
-5.031014900650009752e-03
3.703053219291746641e-03
-1.442403856123435427e-02
1.510981700542990587e-02
-6.535227195065496097e-03
2.255710596310659018e-03
-1.364757921403554966e-02
3.458415354724245910e-03
1.886102959917693514e-02
-2.118094856878970089e-02
-3.980513233297688219e-03
-6.820852796974367221e-03
1.376559272921059956e-03
6.825933619063216662e-03
4.030638975192248584e-03
1.265857840513362996e-02
1.606560569539940142e-02
1.188166276051814789e-02
4.217647004987992720e-02
3.134228880919227855e-02
5.475367825992933507e-02
6.654996589772346760e-02
8.800251676580284066e-02
1.028122362631489484e-01
9.961154387829605772e-02
1.025588477732833625e-01
8.314688915258661162e-02
8.919573295589504347e-02
6.524355211261846643e-02
4.925950918090233471e-02
3.675546303401591719e-02
1.868774948101151884e-02
1.127097368999661203e-02
-9.436464680486794827e-04
2.087100218354359486e-03
-8.041126064878145394e-03
8.793303352046978952e-03
-3.174397759855983065e-03
2.517577767049738319e-02
1.047088365584270377e-03
1.908665809119795831e-02
1.055536471953127664e-01
2.014865743023796785e-01
3.650327653009510787e-01
5.419098181562279626e-01
7.595629371346838132e-01
9.059452592027561479e-01
9.961008738143485308e-01
9.550650399233430177e-01
8.774496040966729415e-01
6.804233681181626192e-01
4.896124032211231492e-01
3.017931391902779481e-01
1.594614436259771395e-01
-5.223451867225226142e-03
-4.490228605595632423e-03
2.083973448286624910e-02
4.085805332304793570e-03
1.077415467430420937e-01
1.121886540253434483e-01
1.402121922649505470e-01
1.734780865156495266e-01
1.783900727884790427e-01
2.014084291851832575e-01
2.496612545293084851e-01
2.485926390708374234e-01
2.596502391482060079e-01
2.731685870066472566e-01
2.746757678043295625e-01
3.113804443151820811e-01
2.858809713786876761e-01
3.162656977344909248e-01
2.809603282760950727e-01
2.944078465102908937e-01
2.676255706873888474e-01
2.215882114414773618e-01
2.127128982112253819e-01
2.072959182652182875e-01
1.637279328620340202e-01
1.525195810637320626e-01
1.369268372393857569e-01
1.196903274586103988e-01
9.432793323829154197e-02
2.601951599597144421e-03
-3.033688732968870157e-03
5.799313214981643982e-03
-9.237979989567452616e-03
-1.395728991794268313e-02
8.228341674544793413e-03
-3.256031920013594764e-03
-4.575468926566626446e-03
4.608723456342068633e-03
-6.266317488134305093e-03
3.095096699305369820e-02
-4.880732975373456954e-03
2.573073862270403023e-02
-5.074098012250840943e-03
-1.146805226047968064e-02
6.201731244717568082e-04
1.583154648795666655e-02
2.844153331934691845e-03
3.551516737822488223e-03
-2.338486869857227604e-02
3.268182464007674416e-03
1.880215373542370311e-02
1.510988073008985057e-02
9.282583594213179162e-03
2.364894417245533460e-03
-1.122510859685068446e-02
7.524656672524196281e-03
1.111855307234533305e-03
-6.026794069270990234e-03
-6.878135179535782573e-03
4.989667158543150544e-03
-3.692976557148323728e-03
1.067710303158130383e-02
-1.830564495665514685e-02
9.676955947152213536e-03
-1.501450028033072225e-02
2.172050060546988019e-03
2.225333164013159302e-03
-7.768319405639783140e-03
5.932814145991671673e-03
7.642218031500492203e-04
1.079740240826161483e-02
-9.826773969837060071e-03
-1.541711015857431767e-03
-1.631645434915706240e-03
-1.039236619365536268e-02
-1.023208747771015090e-03
-7.406505642328031769e-03
1.563298629573908055e-02
-1.208262452623356381e-02
4.949850402744458873e-03
9.517379032707908720e-04
2.961535411892017404e-03
-1.552241494306876544e-02
1.047561902626355235e-02
5.881649994662833079e-03
-4.692989554006549678e-03
1.270354511724456834e-02
-5.452880179948777460e-03
-8.387949461985040947e-03
-4.297340042233594413e-03
-1.177201485933973037e-02
4.756570282010742236e-04
3.234237973375315989e-02
4.968313983585180560e-03
6.820874254368461398e-03
1.213994393239007166e-02
-1.333137558765795649e-02
1.849705686538532373e-02
2.860253813614840185e-02
1.871861882832519253e-02
-1.934968022703701176e-02
-3.118299901710889707e-03
-6.355339883197576485e-03
-2.237819568989644296e-03
7.732850766368115115e-03
-1.552712755893326376e-03
-5.225241081589550481e-03
-2.692823809768395138e-04
2.192379467488151518e-02
-8.831181646021355348e-05
2.325913696090991145e-04
1.227366339841836143e-02
1.363094326293111912e-03
-3.354174775215054607e-03
-1.782840619727403889e-02
-1.438267094490530348e-02
-6.061696191854513277e-03
-2.110507194959794150e-03
-9.645911394661411259e-03
-7.286710804961228811e-03
2.551687265168661040e-02
-4.906288039182659690e-03
1.110911686220989424e-02
-1.017040569395768904e-03
-1.598438013911936822e-02
5.510497981478263731e-03
-1.824187626353207265e-03
-4.969936454082147202e-03
-1.606463470087195200e-02
9.356755263882271523e-03
1.881920521193490223e-02
3.575342627097977816e-02
4.661295458192708796e-02
7.649040157488562475e-02
7.683318563853276661e-02
7.614957070997349642e-02
1.184916618136751115e-01
1.016641254201295641e-01
7.133680414048956808e-02
7.841035413082894645e-02
8.097476286436094961e-02
6.106542573738326513e-02
3.977197284977952718e-02
3.234470767557036386e-02
1.237322599116199781e-02
8.711175440317108984e-03
-2.384127119544009014e-03
-1.626143538642346471e-03
1.955057446553852118e-03
2.586527168097316372e-03
1.898956412626856766e-03
8.945395540792672878e-03
-6.043843769348832169e-03
1.266388071265340566e-02
1.299310952212442694e-01
2.650427409540803692e-01
4.097635411753237089e-01
5.963723487744210239e-01
8.086021940136145503e-01
9.334400967856470999e-01
1.013196158678404402e+00
9.292949762382410883e-01
7.828329086364000933e-01
6.221978592164262301e-01
3.867190183280361238e-01
2.433613804663475322e-01
1.376566283758542397e-01
4.272586715236518541e-03
-1.386442017821261710e-03
3.695982772844704899e-03
1.554005211698003888e-02
1.181658052912315793e-01
1.319146492997064213e-01
1.430777143906807047e-01
1.728305876264612517e-01
2.018139559589184062e-01
2.212050204378241958e-01
2.288240286627495623e-01
2.607380127334467113e-01
2.638174119178975929e-01
2.636671379477671939e-01
2.886169824470798395e-01
3.138671216241263329e-01
3.020005871094035288e-01
3.018600080928426910e-01
2.733069203206925923e-01
2.756803199252826908e-01
2.535779098042016400e-01
2.348937537574568579e-01
2.256529615536542743e-01
1.987175494821187827e-01
1.610499749141913739e-01
1.515506078134265244e-01
1.325599918819770628e-01
1.119837687232535794e-01
8.199001562792807007e-02
-7.822808855359734970e-03
-2.230001400210927451e-03
-2.150151326587610573e-02
-7.949306851363599144e-03
-2.218077227699989662e-02
9.736706628747253400e-03
-5.048537487969461356e-03
7.253781191440923821e-03
-7.681927617263013992e-03
-3.361451860156398908e-03
5.615626164330835696e-03
1.255711949572693373e-02
-2.260662834622271383e-02
-1.617993533845303545e-03
-9.003119167091185038e-03
7.228499272313417684e-03
-1.867394735779506418e-02
-2.569191907996756959e-03
1.138478260744541642e-02
5.408140458704935663e-03
5.293945221538126807e-03
-1.012296426179097077e-02
6.298695244263941527e-03
-3.044726292751626529e-03
-6.258004264194834149e-04
8.697152348190479582e-04
8.841143959962443830e-03
-1.283418034613267910e-03
1.392853724459959357e-02
5.968213373890616374e-03
1.072902751024120555e-02
5.942734212656758386e-03
-6.606581276126428405e-03
-4.992795770216846424e-03
-4.423100201395912222e-03
-9.290167774954402949e-03
-3.340541256336843068e-03
9.551392393433991894e-04
1.134103985577102763e-02
1.595198279432857857e-02
2.291489349468266189e-04
7.702238888054950029e-03
1.653443148379772631e-02
9.783620465516599043e-03
-1.366276833406706442e-02
-4.432260848946247001e-03
-2.368243612739332274e-02
-5.363834953473966063e-03
-8.882068336527968594e-03
1.329732797323386097e-02
5.191416106330835542e-03
1.358052219981057893e-02
-4.851132594240486866e-03
-2.223106404651314493e-03
-2.239014340544658987e-03
2.014142740707566825e-02
-9.980940812484866489e-03
-8.820149317224988683e-03
-1.456395737615133468e-02
2.547137921211871641e-04
-3.109514566985575532e-03
9.745431309507456458e-06
2.583260874840401494e-03
4.948560614985571433e-03
-1.297795507428290817e-03
-4.161932571634632989e-04
1.742694131370110030e-03
4.084226118020260927e-03
6.657967662205442269e-03
-1.551506603554133126e-03
1.055651226110517968e-02
-7.793456964410516545e-03
-3.562863980894060301e-03
2.920172138286421769e-03
-1.087452563836776090e-02
-4.959394339242147176e-03
-6.036602954885140863e-03
7.131930795704917621e-03
3.353969012130585646e-03
4.190719342854511142e-03
4.504166448027091432e-04
3.396543479417554832e-03
9.150209359339904480e-03
-7.685242738588148222e-03
3.803015926015956491e-03
1.552278684946732396e-03
-4.937808240302720558e-03
1.696828543076944404e-02
-1.407280772062665872e-02
-1.715144968762104954e-02
3.261422618096049969e-03
3.836245377718712924e-03
-2.889606679342340834e-02
3.673484171846808240e-04
-1.381407308630955982e-02
-4.405688155896135029e-03
1.886567873864867725e-02
3.489616625626637048e-04
-1.089788663360306310e-02
1.700351964595131146e-02
1.336291201000310881e-02
4.130123609631866644e-02
3.365003634903884766e-02
3.477226125551954872e-02
6.009023001764679517e-02
9.171384292561979290e-02
9.529005669396113654e-02
1.022246515582366094e-01
7.857393010088811747e-02
1.104436431980132527e-01
8.593104224625433551e-02
8.174079678595491671e-02
5.667612462592439004e-02
3.167554824947832470e-02
3.593135273558134557e-02
1.353833375805952796e-02
5.484851166936700363e-03
8.060690197563403049e-04
-1.165169120890307761e-02
1.627916298975087828e-02
9.726578804265902838e-04
-7.043257138342390311e-03
-1.441605583149641046e-02
1.104185954858606135e-02
2.701394074015107949e-02
1.788002808204656457e-01
2.944213650638237145e-01
4.832759282019081226e-01
6.886950888754812539e-01
8.622518108822059268e-01
9.651803550216464522e-01
9.882230332166525022e-01
9.000182101917534316e-01
7.214931694955256658e-01
5.350809086311196783e-01
3.495703374783875050e-01
1.946343020800739565e-01
1.219051404865037630e-01
-2.319455942568339132e-03
7.745736473489674796e-04
1.377230036057714747e-02
7.816779564309689343e-02
1.156916531545700705e-01
1.206762303307818973e-01
1.574374775952644967e-01
1.924136245404985401e-01
1.869282253931870696e-01
2.323388418526257937e-01
2.501834976936687660e-01
2.545940124221645062e-01
2.693373563434495743e-01
2.984922209713001817e-01
2.740885136689432677e-01
3.064572262443913120e-01
3.039458955737547874e-01
2.865252379155384665e-01
2.852270682753516029e-01
2.534945669785449995e-01
2.520223712023751950e-01
2.225237872787910742e-01
2.103927444955249471e-01
2.085951302965035892e-01
1.586091887978884896e-01
1.496497715208224277e-01
1.141331096281352347e-01
9.146837485368854159e-02
-1.551259284941072184e-03
8.830421981867710157e-03
-6.355211503187414845e-03
7.638219917633662327e-04
1.010114465714117074e-02
-5.330637482632979637e-03
-1.618227209770617403e-04
-1.208177066463414842e-02
9.937169824279785957e-03
-3.263053940957880324e-03
-5.568172001997238017e-03
1.628669830454899589e-02
-2.074405496188392543e-03
6.694140391646645136e-03
6.320107438447393131e-03
-1.008845670947509064e-02
1.414568152040681162e-02
-1.432717675242221531e-02
-7.585057351117851891e-03
1.176614290246072968e-02
9.347623338672335618e-05
7.480429165562678395e-03
1.026137361789544560e-02
-2.457039780383915746e-03
1.193202208184229382e-02
-1.171933303660709601e-02
4.099049655412844231e-03
-1.604670744591553226e-03
-7.628796729815276543e-04
2.467034624558392744e-03
1.537817383893283832e-02
1.661276088868636133e-02
1.297648440860201327e-02
9.686342660715926110e-04
-6.418028471499358754e-03
-8.507150405508780849e-03
-1.627219626646189427e-03
-1.154577993217499945e-02
-1.532504367577035981e-02
6.173777250211049013e-03
2.150683120129121949e-03
3.737470217336619303e-03
-1.954154224513183265e-03
3.169339156146910256e-03
3.526420999017066066e-04
-1.044744958000383243e-02
-8.658698555769707428e-03
-4.487562236930491347e-04
-1.534721528290463460e-02
1.064381695576269680e-02
3.757975485187959458e-03
1.285205833192343966e-02
9.191160279775749745e-03
-2.467121664928658212e-02
6.772800256784533568e-03
1.407017077390481600e-03
5.490148854737329775e-03
-5.492939245833440912e-04
-2.925667198902864516e-03
-7.332904975023892685e-04
-1.350120693318814999e-02
-2.798578324342846334e-03
-8.087591264566073787e-03
-1.061124655000877590e-02
-4.508868914992037943e-03
-1.760408339957027571e-02
-1.095772688591472102e-02
-2.394602129796273571e-02
-9.652520698722690320e-03
6.757513702167316193e-03
-6.451674813571141136e-03
1.319679978674914364e-03
8.652388657071576408e-03
2.835724914968617660e-04
-2.561125294749194269e-03
-7.547905818723438590e-03
-2.512395033412656055e-03
9.959716881345290554e-03
1.274294820542823175e-03
7.361100789630013047e-03
1.882571383649740346e-02
-1.979619933125429960e-03
5.087336724692687398e-03
1.879292772350950672e-02
1.492215049775690592e-03
4.401145285821307131e-03
-9.701942770330330632e-03
-2.266289062004660237e-02
-7.768901171901753180e-03
-5.080943535403665938e-03
-1.777263125134525071e-02
-6.081612929809240148e-03
4.266782385428908621e-03
-1.708319097440472818e-03
-1.464602513101030809e-03
1.062167345713038551e-02
1.012832766993946622e-02
6.837183309684822206e-03
-1.676689948388277590e-02
-1.373862179941367015e-02
1.042666853259284834e-02
2.108940508313158352e-02
1.811570688863523015e-02
6.154230748677151641e-02
3.844795450586500213e-02
5.856403191348263232e-02
1.013205345688266978e-01
8.284823490508903820e-02
9.946179460796483740e-02
1.100760129199547799e-01
6.592174700561585776e-02
7.123848913557126461e-02
6.502227135739584163e-02
3.024890915908293523e-02
3.547615274793659845e-02
1.622904900416891755e-02
1.155814357145863377e-02
7.241923194791234294e-03
7.336653828743652100e-03
1.212218631502113078e-02
-9.719840995388985203e-03
-5.961626371615107861e-03
-1.242970846939791749e-02
-1.189910721426846833e-03
6.664069414653890112e-03
1.123251703609087770e-01
2.143931256967571974e-01
3.468774154825775557e-01
5.458475853434689995e-01
7.234984964892257064e-01
8.968748830086960000e-01
1.006826702555989606e+00
9.790701956980810694e-01
8.565096539373052709e-01
6.762510216331947266e-01
4.693656652621087666e-01
3.090113540424604399e-01
1.880144878046067503e-01
-1.928299771942734026e-02
-6.450874694026340408e-03
1.048809847261227002e-02
-1.135014528770437146e-02
9.891841671298660932e-02
1.144601681836646401e-01
1.564331758245142701e-01
1.730985988367502171e-01
1.885521311057175853e-01
2.041696397765001003e-01
2.408928982632917437e-01
2.508502586098659282e-01
2.932157996420081680e-01
2.654659709933326339e-01
2.899615017925279981e-01
3.034853826545662048e-01
2.851267843945871627e-01
2.987544893524844425e-01
3.005288527263149656e-01
2.761453032223255555e-01
2.556273480442745050e-01
2.271814644392849136e-01
2.110708200045272875e-01
2.003734982086977645e-01
1.680854731854863615e-01
1.539974966626645458e-01
1.452647344163618959e-01
1.173345987806255208e-01
8.035159521926620030e-02
-1.044125469691145960e-02
3.495473851551079893e-03
3.365831839902773751e-03
2.238089133064311270e-03
-1.205918804650846221e-02
9.315074317816159251e-04
-1.531754975447343833e-02
1.461897656598507185e-02
2.871640036599449556e-03
1.220761573669849366e-02
-1.502960685426403716e-02
-5.332669513971440229e-04
-3.041426853470232880e-02
9.770701829803789609e-03
-1.712519567798505629e-02
-9.979397369569754667e-04
1.843039759079756175e-03
-1.506003718307553745e-02
3.442513123346644874e-03
-2.465244469991093468e-03
1.013998823752385644e-03
5.223087553486337664e-04
1.968799518286072983e-02
2.451902725960032267e-03
3.232166851945168784e-03
2.479053548803955564e-03
1.068828524432152705e-02
-2.895665312825414402e-03
-1.151034458873930778e-02
-7.648991594161322414e-05
-1.945850376140599840e-03
-6.154170984321062632e-03
1.829449790965357800e-03
-8.888690976259161491e-03
-1.773131643532456156e-02
3.392692411445588207e-03
8.116131254005396964e-03
8.768244368245213527e-03
-2.844948698083471918e-04
-3.125283842999786697e-03
-7.835609511460518792e-04
1.226354171936736145e-03
3.213080695465349041e-03
-8.506910933412525563e-03
-1.119526996460629099e-03
1.034888680318542080e-02
-1.367703915325599491e-02
-8.753106613131089384e-03
1.100396618282158470e-02
-2.159318176515835977e-02
1.595770430735657386e-02
9.687163722886955528e-03
-1.965473724514806009e-02
-2.428442472592951158e-03
-1.249156957110256465e-03
7.816708222597812481e-04
3.905909877151836785e-03
7.754995827559931811e-03
1.229923333435066143e-02
-3.413001734757463023e-04
-2.315790512420581523e-02
-2.304803806676189448e-02
-2.425097164114868586e-02
-1.490730921579755744e-02
-1.416134504027088091e-02
5.003634418125188846e-03
8.824891372474998399e-03
-1.112547935612323569e-02
-3.421907063598800779e-03
-9.611720080765436686e-03
-7.213720735426053243e-03
-6.262969330268770840e-03
2.356511533600856687e-04
-9.425242213231533467e-03
-6.122144857217114719e-04
-1.626357164101607453e-02
1.342974405846495897e-02
5.564793774496411619e-03
2.775197260767590327e-03
3.400851985835393228e-03
-5.603446953003370437e-03
1.382538013182557819e-02
2.293952823845303232e-02
-1.068307229977169710e-02
-1.417629929863057974e-03
-1.428927127679939860e-02
1.272413974040296700e-02
-1.329152290604813762e-02
1.061091618109446383e-02
-5.810968054282368220e-04
2.052491117064157364e-02
-9.985062827867111079e-03
4.554202366805632125e-03
-1.203064682529489740e-02
5.770317823275917558e-03
1.077618419962487160e-02
4.526297990437363507e-03
-4.175064248847879834e-03
6.960207002133303456e-03
-1.594854090315534064e-03
4.014713143825742597e-04
2.994408328536637964e-02
4.300611064970777386e-02
4.607392709934580999e-02
9.357248515531634003e-02
7.021063572391333940e-02
9.364122584277949357e-02
1.055756736131455570e-01
1.057399198826291381e-01
1.224965289165164672e-01
8.977766798115582869e-02
5.860881398147083088e-02
6.833626967177754141e-02
4.806249875934919674e-02
2.213304540863266640e-02
2.271179892007980927e-02
1.500972622483833646e-02
1.482108972377925785e-02
9.772302754450274895e-03
-1.740679423449731714e-02
-3.393574685679358674e-03
-1.143944068895333573e-02
-1.803713131481715637e-02
1.367140259392598395e-02
-1.276750462050525118e-03
1.344171073552194728e-01
2.429658033135006501e-01
4.075668543995031867e-01
5.872481544530702147e-01
7.921053499694237221e-01
9.401431066732987007e-01
1.009268862191490923e+00
9.396781506927543992e-01
7.970968178976838292e-01
6.088740526224741823e-01
4.230158338775560911e-01
2.549277021589128611e-01
1.347397630774597177e-01
-3.499446159904868233e-03
3.448586389888910232e-03
1.956825900558608732e-03
2.346309173694852319e-03
9.788859323771659238e-02
1.250336058068041156e-01
1.459281708037143410e-01
1.654781375709130364e-01
1.989345347245026208e-01
2.037377293258936517e-01
2.596364518629613594e-01
2.449180956620956029e-01
2.850523713515745738e-01
2.875750370558511904e-01
3.086053307695802439e-01
2.992844530327029573e-01
2.873021393863782191e-01
2.998394777935678435e-01
2.822922312870196349e-01
2.721972963602974915e-01
2.600632768268786310e-01
2.457064055528067059e-01
2.173285759756477253e-01
1.901440684106654178e-01
1.722442260580902273e-01
1.506961340442427855e-01
1.167578254889842237e-01
1.031293221717363012e-01
1.074268747161663262e-01
1.359268639279998664e-02
1.212737789395329025e-03
6.248134561728524612e-03
-7.294538665992595858e-03
2.367312333895190465e-03
-4.830078397788212761e-03
-1.037557993048581970e-02
1.353776470047063189e-02
1.637972236763460612e-02
-2.130137046960420624e-03
-3.052245792001084378e-03
1.027439905049614896e-03
-8.870648998859927137e-03
-8.481228783007124794e-03
2.044863526835582687e-02
2.829251210416772536e-02
6.542573723701666615e-03
6.028978781015102359e-03
2.554871622154378154e-03
4.601226941900135939e-03
3.689680887315231143e-03
6.357239078969134823e-03
9.357484575046788947e-03
5.307007142576421026e-03
2.232075897372657550e-03
-8.996954878003178557e-03
-6.764976860132847561e-03
-2.282855523753649259e-03
-4.086969289413955667e-03
5.160573759076724117e-03
6.580326001218426459e-03
4.893271330154934026e-03
-3.098713195653165012e-03
6.078572051194749797e-03
-5.091931371303530518e-03
5.323347504586999762e-03
-9.490788132385474113e-03
-1.498072796901607018e-03
-9.179978374979032296e-03
2.129307120110337734e-04
-3.645173820988984511e-03
-5.585783392819175606e-04
1.462386151944195661e-02
-1.901309670763414979e-03
-1.185208540680610621e-02
1.136364306167257469e-02
2.092124535280221950e-03
-1.062028525818696327e-02
1.728279883235410528e-04
7.363509228064968673e-03
1.150929327654435022e-02
-4.671879551804925847e-03
-1.927724007811360690e-02
9.194488278913678025e-05
-3.399262165256815727e-03
7.516566874474634764e-03
1.785569724507701447e-02
6.702914725578810497e-03
7.887473387753848875e-03
-1.937978184745005675e-02
8.978603288875449534e-03
-7.608278797189112035e-03
-5.378071037170547783e-03
1.045273106299195566e-03
-9.204538748466715645e-03
3.587875757322828065e-03
-1.468244774732000400e-02
-1.337123613533618485e-02
2.373771901311454938e-03
2.593249218171797630e-03
4.890240090988414411e-03
-1.100374773579999854e-02
1.420757668216775585e-02
2.515050751866954558e-03
-2.223037487452424101e-03
1.001391062511844572e-02
-5.102783602599711074e-03
-3.186100934045030426e-03
6.578121722779735510e-03
6.754320731265213602e-03
-3.014926153341263536e-03
1.086812501130174358e-02
9.730658171064242301e-03
4.325321066017771138e-03
1.038898753157165228e-03
-1.290680480063054886e-02
9.354964172719300785e-04
4.539985861267116724e-04
1.110177556707533410e-02
1.978714760009264370e-02
-4.021701951151225411e-03
3.432726069358931452e-03
5.775132800662407997e-04
-1.707239788596382792e-03
1.073284036897763360e-04
6.197752409929262359e-03
2.786031579057040436e-02
4.440692383564982110e-02
6.867012615170020595e-02
1.275192077469112784e-01
2.254044170305992412e-01
3.323150815208670839e-01
5.020973513317177339e-01
6.544033623523614063e-01
8.462249692956262948e-01
1.007124093567748568e+00
1.134604327830958770e+00
1.197486105479417695e+00
1.179064371864799066e+00
1.094845801897287307e+00
9.542959308681220332e-01
7.865869047184858021e-01
6.034291176392700962e-01
4.315506250373445929e-01
2.966500479247561328e-01
2.043071377872655581e-01
1.157805833781711535e-01
6.831867553057242859e-02
3.107399424298957005e-02
2.378067585379489007e-02
1.839519465880741500e-02
3.075993750995501853e-03
-2.913136331297303330e-02
3.515786680319075725e-03
-6.854440255862204526e-03
1.419562124365740807e-01
2.413228154468868569e-01
3.873263692578337025e-01
5.645267405150482531e-01
6.733749845421973523e-01
7.849470997181923204e-01
8.017177533948598445e-01
7.200643120443450673e-01
5.952297186385592243e-01
4.390682010244775224e-01
2.949338085784138364e-01
1.612780149891147319e-01
8.228001731073375513e-02
1.777503342855788187e-03
-1.294054348726022055e-02
7.361865879853106594e-03
-4.531322738745457881e-04
9.397938425000463419e-03
-4.482698013842480352e-03
-7.559054957165443206e-03
3.262126087367886972e-03
-2.078908559627803618e-02
-6.711741361427429886e-04
1.281273514673436772e-03
-9.793017536324437333e-03
7.052527729401497809e-03
-1.131972458825221753e-02
1.431749928881850299e-02
-4.165359710787517808e-03
2.556305934563230225e-03
-8.817224967846872333e-03
2.049919286269259473e-03
-1.900994554786348406e-02
1.863051769263547250e-02
9.379438647579296535e-04
-1.134543633615555172e-02
-5.196097238826482244e-03
1.654379213152139261e-02
-5.823208422628921299e-03
1.091217250845886479e-02
6.929117981843245858e-03
-9.547678123784852575e-03
-5.841215699331503159e-04
-5.398652855414065414e-03
-2.119316463183456775e-02
-1.173371980771571038e-02
-1.356200502922088116e-02
1.436447686034184566e-02
3.505131152216245556e-03
1.618048436887091143e-03
1.887736384643962616e-03
-1.980169437782685043e-03
1.260487874277860243e-02
6.044892366454962139e-04
-1.479265336515275114e-02
-2.016262173223632923e-03
-1.265809679672669739e-02
9.524066078524745169e-03
1.083932962454093978e-02
2.597551767141880602e-02
-2.434517183613119258e-03
-1.716010187633182880e-03
4.392082105156216477e-03
-5.945706819071722160e-03
9.402270006366742969e-03
6.271566705469380082e-03
4.605272002575790807e-03
8.354306166331674707e-03
1.570971315364742349e-03
-1.177147207649069209e-02
4.343295066091500817e-03
1.798495154792782713e-02
-9.245163258014632915e-03
-6.899974265041308036e-03
-2.269458471027314614e-02
7.560115731085406687e-03
1.025428088044521647e-03
1.030369791864101450e-02
9.497727904564554416e-03
4.084230090607976309e-03
-4.542702168700038338e-03
2.224630236890781307e-03
-4.397183350502836645e-03
-2.495044601067727269e-02
8.080121731590494787e-04
-1.192092423766504504e-02
-1.407434370716357554e-02
-8.301903693090414288e-03
-2.461329868368737107e-03
7.945933136946959491e-03
-1.114914072624628152e-03
-1.405915177959008930e-02
-1.450138388157493595e-02
-1.682949883407142350e-03
-1.046595171800202180e-02
-4.314316324946173599e-03
-2.466643474956902501e-03
-2.362136088595475844e-02
-3.323178073887090005e-03
-1.233399862739154203e-02
1.835338372485304263e-03
-1.313548631654101306e-03
-2.005343742549140287e-02
-8.555940784538012406e-03
-6.762319518304592963e-03
2.660727300827465253e-02
-3.039696153890123452e-03
-8.217179713327159296e-03
-1.226330436542212750e-02
1.122083069702702399e-02
-7.944546563180020227e-03
-3.764962915259309809e-04
-7.061127254020016335e-03
-4.827516775701656132e-03
2.284079043765861218e-03
1.559120015468274008e-02
1.554265100942685794e-02
-1.180824057080766975e-04
-2.724113383693808725e-03
7.026518652868695564e-03
6.860026239613641399e-03
-1.301508772065761675e-02
2.036829750902237508e-03
8.961073739016221437e-03
6.038307346145272737e-04
-2.865897212230182275e-03
-8.381252657772151476e-03
5.488974037683312830e-03
1.421216940473025471e-02
1.657000155718310911e-03
5.960570926723756215e-04
2.452134836835508352e-03
1.380535283314646318e-02
6.106515225012302053e-03
8.661207729391310131e-03
4.003714160597585808e-03
-1.441767665991494640e-03
-3.558984635687440466e-03
9.333155959371126908e-03
-1.443283786425379311e-03
-7.409895848690802207e-03
8.296955978967721079e-03
2.891907305003400125e-02
3.705001285682126000e-02
6.241936705663177903e-02
6.522599554369210018e-02
6.391078561216499698e-02
8.551710103897357251e-02
1.129781783437188436e-01
9.004531202291496395e-02
7.352158684151495482e-02
7.917323110603116665e-02
6.271305440389027264e-02
5.779711726071223160e-02
4.890751466600011532e-02
3.776303158103125335e-02
7.326905309109689110e-03
3.275285358251214113e-02
-2.192972857492711937e-04
-1.842044337574380922e-03
1.047216285867217603e-03
-7.085387604283296427e-03
-8.907631704053670454e-03
-2.104013117369419802e-02
8.815377580241805233e-03
1.233820859262504737e-03
1.153581111535052772e-01
1.975218107707661652e-01
3.414381537415054901e-01
5.380225447590776255e-01
7.478850701555652680e-01
9.172033526628723399e-01
9.978515198128322661e-01
9.589444316845667782e-01
8.547545448054150174e-01
6.718366323426026021e-01
4.652343777165430794e-01
2.953984179365518048e-01
1.611582772826471721e-01
7.593929435890346691e-02
-1.594501127826091630e-02
8.664683188005619166e-03
-7.551200440760795583e-04
1.055444239252127658e-01
1.287654101105423499e-01
1.338112450926425556e-01
1.590099260099151202e-01
1.874422493434556580e-01
2.232166965155907845e-01
2.355356127033954305e-01
2.588281037923990668e-01
2.572696050964639047e-01
3.034721521453127013e-01
2.937361604161479178e-01
2.860572232683516458e-01
3.114572360398806250e-01
3.165947886678631695e-01
2.919750545670788955e-01
2.728115286449605548e-01
2.710735728408779077e-01
2.564826555383784568e-01
2.158395565778237213e-01
2.182776908644908365e-01
1.807349065096708896e-01
1.653241895670146677e-01
1.239571395567661410e-01
1.200930186113840920e-01
9.668546062037203237e-02
-1.986604069526136385e-02
-1.482910864578663133e-02
-9.633143821499268178e-03
2.538692663149594211e-03
-9.027599146317533477e-03
-4.968493869197468382e-04
2.936841956862334523e-03
-1.498401841501058145e-02
-2.486334042579209456e-03
-1.207923586200771587e-02
1.234421339815014538e-03
-1.108760698950135397e-02
-1.798279510710090387e-02
-1.688310305642750850e-02
-7.381812133068752814e-03
6.730812602242488597e-03
-1.318078426179513209e-03
-1.080030844420740675e-02
1.114770250459154281e-02
-1.888540374347874237e-02
8.433309993673735253e-03
1.620115277348510574e-03
3.503667360500593592e-03
9.454176515991718002e-03
5.697558836479038949e-03
-1.193833510658681360e-02
1.449525737370274854e-02
7.330678143156868498e-03
1.273218646916812399e-02
7.284315560663049381e-03
5.616005856912765874e-03
-1.297715768394370160e-02
1.149835977005430471e-02
-2.317263760481931296e-03
-3.149397094272650844e-03
-1.094003816268422288e-02
-2.031057834759469535e-02
3.005666108141863760e-02
3.535484794300023954e-03
1.794128390006011903e-02
1.349918218886511428e-03
3.282570432860384534e-03
1.987012818578286124e-03
-1.553986065324603188e-03
2.630829674843945375e-03
-3.345841229934051839e-03
-1.084921584994393874e-02
-7.462884636478947162e-03
-1.319926633467538232e-02
-6.375243081587106918e-03
-9.978528121651376870e-03
9.471712122431641401e-04
4.321403924467958485e-03
3.266539185675492070e-03
1.126292980192724648e-02
-2.197536386541556076e-03
-4.114370790966335838e-03
1.999213037422029396e-02
-2.886139291260831231e-03
-9.486326171339492727e-03
7.260386148787476013e-03
-6.530963512109495307e-03
2.409460781555481518e-02
-7.820895329785290673e-04
3.651189264685254831e-04
1.752101303522173720e-02
-6.313509882505423040e-04
8.794183413516494172e-03
3.289007345336442643e-03
8.348170638216684605e-03
2.425334426057066881e-02
1.252701439553590909e-02
-1.318461058272119533e-02
-2.884377947704550721e-02
1.221527957559470981e-03
2.389020212083199039e-03
-1.223072499079351332e-02
-5.279913801538169832e-03
-1.312376178062546646e-02
-4.680505712780706588e-04
7.506480277413644410e-03
-1.808805684488101403e-02
-6.988587860815864000e-03
5.150700117300807332e-03
-5.734575939327976948e-03
1.304808405765637939e-02
6.002494824613929802e-03
1.231025320208314899e-02
-2.029529501810044267e-02
-2.095897466948516957e-03
5.726180431446202534e-03
5.753795781221806779e-03
-6.593582856203830667e-03
1.672912098193810038e-02
9.760318709772836457e-03
8.888676844861482726e-03
-1.054912905135718844e-02
1.046882831695862548e-02
-4.440208996742784839e-03
-3.246000837980648167e-03
1.983949666194727984e-02
2.100713411012564841e-02
4.320960192536956596e-02
4.579592619100697481e-02
6.453625098102000468e-02
6.722432635838772319e-02
7.965608442262456235e-02
1.001807623721064494e-01
9.904947205039228708e-02
9.865629537889748779e-02
7.049125408625490918e-02
7.368938763462701269e-02
5.305769908534595930e-02
4.460287323826397921e-02
2.912683931149659747e-02
3.575191489463484806e-02
-5.678808265435920238e-04
2.873305442862991114e-03
-1.321269991474772337e-02
-2.992144800716055493e-03
-2.914851755961075843e-03
1.804974368352350346e-03
-1.456956873438229084e-02
-3.271980846194624207e-03
4.164436333887579569e-03
1.524884612626202229e-01
2.353905103682104039e-01
4.185113176517006317e-01
5.992528898260510717e-01
7.947262691805125900e-01
9.436206797079869091e-01
9.977428042738596403e-01
9.416000246383529060e-01
8.076403022835717538e-01
5.878936857241112701e-01
4.179199624958705450e-01
2.546214601058797711e-01
1.438384470476000709e-01
1.414076954319816752e-03
-7.431569751483868905e-03
3.421889020037881084e-03
6.124269943976496690e-03
9.199147524631330619e-02
1.378640872725776512e-01
1.512277072324290372e-01
1.770572451386810131e-01
1.963266973710809382e-01
2.179858440107950990e-01
2.495785627612654711e-01
2.495486217387405947e-01
2.757165221176670622e-01
2.601556870738402361e-01
2.911585922925202241e-01
2.978856694345376477e-01
3.107338025974818452e-01
2.869221421539082661e-01
2.925553432002539478e-01
2.608573939653098250e-01
2.493723657267129801e-01
2.439238780752965019e-01
2.035962647562928329e-01
1.801046286829065535e-01
1.594951885052250384e-01
1.471497062326098670e-01
1.223856524753377112e-01
1.117710113620321716e-01
7.371643113431561312e-02
1.882168175983896762e-03
1.049989240325379519e-02
-5.939587237193301103e-03
-1.329935509876653890e-02
9.910244791652400229e-03
-6.703576750730997486e-03
-3.512167731725070359e-04
4.296823231431816381e-03
-1.443057128546626142e-02
-9.786602247257540979e-03
2.730110449790940173e-03
3.922213105697219121e-03
-7.010818425734949288e-03
8.882802320868044346e-03
1.336566216557324559e-03
-2.177322860342229341e-02
-7.539164623219990480e-03
9.879998534708884020e-03
4.388950925406097207e-03
-3.210063284740735743e-03
-4.116240266777310489e-03
8.851108272616843922e-03
-1.168924407850779716e-02
2.028427456349153959e-03
3.099553112310203355e-03
-1.245635629346653062e-02
-5.569920355819003507e-03
-2.516509067371829576e-03
-1.546847372267229478e-03
4.042879216995400905e-03
8.989216560045145202e-03
1.846131038672981992e-02
-1.107245542094049962e-02
1.464425381805143592e-04
-9.184225627887320983e-03
-1.583875818578510961e-03
-2.279624004398155511e-03
2.713518550124825301e-03
1.318981962371581704e-02
3.508928387261855963e-03
3.466758373096109902e-03
-5.570517955872721777e-03
9.012922135832086498e-03
1.181972350768439569e-03
-4.460645105322302156e-03
-1.451123860852062027e-02
1.286330061001093351e-02
2.940506658573443025e-02
6.700668846965573966e-03
-3.893852591366427345e-03
-9.325671902298609747e-03
-2.161042100910014890e-03
1.270924533398457359e-02
6.847625060046667704e-04
-4.324608559873719185e-03
-3.101482225819654449e-04
-8.962479875588800007e-03
-3.455936533188722071e-03
-1.776700959818146991e-02
8.268410958190453323e-04
-1.185145107998408429e-02
9.360977182034371444e-03
-1.427880998622390804e-02
-1.637606339088393953e-02
5.951424665791005091e-03
1.644400679419930761e-03
1.207056966362372863e-02
4.481192639114225246e-03
5.813696840241787747e-03
6.959867797801222444e-03
-4.179253434937281464e-03
1.720098432312543515e-02
1.227866287718358887e-02
-6.193896905462568589e-03
-1.287251146354221167e-03
1.794275842166460563e-02
8.470696117426585597e-03
1.315637178588937618e-02
-5.029560549208512629e-03
1.385660087524522065e-03
-1.430876642998191780e-03
-4.044031539732295330e-03
-2.173958289310628112e-03
-1.061130882127305115e-02
7.253578453410161088e-03
-2.341239394326974019e-02
-7.733878332884186815e-03
-1.500295104608023386e-02
-2.980723984976152950e-03
1.012870067797676070e-02
-1.017561660792185886e-02
-4.017892733110742590e-03
-1.013696026006050653e-02
8.955645501299005704e-03
-4.908658472050510648e-04
-4.843239747707804577e-03
-9.196853386254415230e-03
1.043253021031844037e-02
9.328202240342245086e-03
5.003875340146715124e-03
1.163471592519712758e-02
4.157085899106513494e-02
4.676677345942964470e-02
7.143987938528199855e-02
6.509812510784808437e-02
7.890671863983955703e-02
1.035756176109585286e-01
8.880213750025503505e-02
1.161943891557185443e-01
1.046263904803247935e-01
7.242929696396697981e-02
6.326210672843983474e-02
5.277270089228459221e-02
2.181957486500944038e-02
4.031199562743479486e-02
1.665685662471302550e-02
-4.441922746997721549e-03
-6.320710521191731483e-03
4.615064187749590499e-03
8.832647716310938410e-03
3.783108102437785555e-03
3.196825108046514452e-05
-5.159905236383162397e-03
3.736359365378422691e-03
1.852023278488342797e-03
1.571666963003348350e-01
2.962920757538562433e-01
4.807101924147094141e-01
6.707863757366534507e-01
8.384330079588615536e-01
9.743318405874639154e-01
9.843558752259053968e-01
8.907397813024879873e-01
7.406614241086745265e-01
5.605275828491618206e-01
3.427315595223121569e-01
2.079045246617057252e-01
1.124466197824794678e-01
8.974432519038766029e-03
8.990486589121379074e-03
1.199987726835906494e-02
9.117085124438403798e-02
1.147839612729228409e-01
1.270806193303967990e-01
1.521610522765580453e-01
1.732524801787195257e-01
1.777358533467273127e-01
2.287559312801211442e-01
2.455014029225111027e-01
2.647745557169305930e-01
2.845970389703978420e-01
2.822815171512447763e-01
2.957380740573188338e-01
2.990492205930295189e-01
2.862204527172703683e-01
2.932890806644993797e-01
2.708936209264017902e-01
2.652503313386766481e-01
2.247879340063276832e-01
2.242449556081538842e-01
1.973660869479829105e-01
1.954912623663835891e-01
1.493531449087347196e-01
1.486729955555173566e-01
1.186723353914427986e-01
9.860088106955415543e-02
-4.086576033548619362e-03
6.811510325330624206e-03
7.337325322752135358e-03
5.027107676470667086e-03
2.995365906053229152e-02
2.778210162108822601e-02
-2.142601045487073710e-02
3.068050327432226415e-03
-2.300216991498084743e-02
1.216796709905831886e-02
-1.759896550606055224e-02
8.941665525816088270e-03
-4.973224621281648571e-03
1.446335413537026132e-02
6.446769890440374844e-03
-4.443666445354186451e-03
-1.394255696961807164e-02
-1.598215655218467642e-03
-1.128460803675274821e-02
1.037996747405767889e-02
-2.285394818816301708e-03
7.703963596562625124e-03
1.751993341847165892e-03
-1.406127789429421383e-02
1.698488061077339795e-02
-8.567182870337644248e-05
4.802511240012103701e-03
-1.671899112936201751e-03
1.382271679891583331e-02
9.892832015610088583e-03
4.877947869163982639e-03
-4.071501276464796308e-03
-4.752213671026825174e-03
-1.062051367746223371e-02
5.552497089601989011e-03
-2.509406687641930339e-02
-4.979506267066086990e-03
2.128765106766374298e-03
-1.049518552201130243e-03
2.870915942439316616e-03
9.607470339693948216e-03
-1.336444170981857579e-03
1.428583631789638077e-02
-5.353403966375984945e-03
-3.988922059737206281e-03
8.798652540284337452e-06
2.010623099252855511e-02
1.426772690726322255e-03
5.043979026865714164e-03
-9.469418794047865934e-04
3.175504071883898790e-04
6.509285815539147787e-04
1.786061067665723617e-02
-3.685033327221913513e-03
1.313715823591679903e-03
-8.190804093238093775e-03
3.027518476527900782e-03
2.997369706284881870e-03
-3.537884081261074079e-03
-8.237963540126746337e-03
7.272165965490519487e-04
-3.358835594310877106e-03
1.236140817811940719e-02
-2.309331378944940241e-02
-2.529303352761987263e-03
-3.985245311504814238e-03
-6.916733074786929683e-03
-1.311932370805102277e-02
4.790688190901453043e-03
-1.461739037220337149e-02
-3.456580429816447520e-03
1.798772707054429806e-02
2.720457657933915158e-03
-3.804873449177386974e-03
1.364561559354734218e-03
-2.070519639316779209e-02
-2.438829126531574549e-04
-3.279759001301651294e-02
3.153780072894205120e-03
-2.634348403717432213e-03
-5.654534619710731638e-03
7.562937693645613649e-03
2.378027274285909962e-03
3.095582038938236250e-03
1.531773569581525857e-02
-1.237351570353799595e-03
4.779091870332129134e-04
-4.806707661667192731e-03
-2.336882263796435932e-02
1.286424870356565713e-02
-1.028107874551936751e-02
-1.130330959055547528e-02
-1.396526130630730902e-02
1.473648948093239913e-03
7.965702897310630165e-03
-3.923557634215745285e-03
-2.196098253389633381e-02
8.829411812027116238e-03
1.043987668008289869e-02
-1.181912190121423185e-02
1.377466473142434367e-02
2.945545401476799136e-02
2.641085576417044958e-02
5.075458040241768998e-02
6.690564937345000462e-02
7.452189563172033349e-02
9.297871720303120535e-02
7.726074565022596208e-02
1.113934079093569923e-01
8.371050792808014396e-02
7.417758868785671866e-02
7.380087885002178938e-02
6.244868672958767131e-02
6.050939132522015207e-02
2.632226312871036381e-02
2.849904057817963590e-02
2.467224892111634024e-02
2.479945727139066733e-02
2.674850701438348521e-02
-1.458331664826890972e-02
-8.687241077854792118e-03
-3.585158695991903181e-03
-5.928930078899400692e-03
1.588689018536687189e-02
-5.133562538743876268e-03
1.009722598385464493e-01
2.081794284158134944e-01
3.323547377075066200e-01
5.369571994817818883e-01
7.358145825608107815e-01
9.052914464298513764e-01
9.938465948934418481e-01
9.705839126629713931e-01
8.606849598819672487e-01
6.700507617919158054e-01
4.635729163221136706e-01
3.110758270841864626e-01
1.785543272450706709e-01
7.936322646165236416e-02
1.003837713310230806e-02
-4.281878971399153203e-03
1.688256167481070116e-02
8.971943288745694300e-02
1.111784405407814924e-01
1.400161860667716307e-01
1.662530925033688656e-01
1.786292273927401197e-01
2.236082224059769141e-01
2.269381177594025356e-01
2.556156104254235228e-01
2.670937046326684605e-01
2.753908090548599086e-01
2.860791745266751951e-01
3.032196973158463593e-01
3.107606084466300045e-01
3.020036462356553986e-01
2.956994341180588237e-01
2.883181905253781596e-01
2.543922467848894753e-01
2.312145989035755966e-01
2.374482261637815284e-01
2.163944010292847275e-01
1.698530833674204987e-01
1.660311191080061088e-01
1.229825013141781359e-01
9.939241331888575004e-02
1.092876553197053985e-01
5.659123831234814765e-03
1.440860867705247295e-02
-2.836822989260056813e-02
-4.377772642232997946e-04
1.674444500599124239e-02
1.660976317411907294e-02
8.400567465382060423e-03
-1.295360463733190998e-02
-6.367679104855267051e-03
1.819033942340250731e-02
-1.043668975936769446e-02
1.011716956217450017e-03
8.005298425885357463e-03
-1.448162917382762004e-03
7.761059346331452939e-03
8.817056202735836998e-03
2.895575251771071064e-03
-4.686981267116171850e-03
1.172390301597646747e-02
1.040152109940657016e-02
7.096859178733113879e-03
-1.429783361303468836e-02
-8.705542629743778099e-03
-2.602443888631538436e-03
8.223856347049342264e-03
-5.256003069579308004e-03
-9.497703046167413994e-04
-2.995690175976407563e-03
-8.088623295361495324e-03
-1.419175136581405684e-02
7.003831066006663102e-03
9.225929406632370905e-03
8.270428499652714843e-03
-1.279266383435904639e-02
7.122848647969312087e-03
-9.313401367106946202e-03
3.583565357447555748e-05
2.027019543938374886e-04
8.767818001162903246e-03
-1.603424883119658126e-02
-5.320674812899682743e-04
-3.862971025897766770e-03
9.689849969407551139e-03
-5.222848207547987030e-03
-6.609789751958059650e-03
-2.772907793543854561e-03
1.224973675223761660e-02
-3.000655593573955254e-03
1.104722248237594018e-02
-1.104039007053121517e-02
-1.811772260277910371e-02
2.240226834989382521e-02
1.024381974262246649e-02
-1.654017268204477711e-02
-2.268308098177770731e-03
-7.482796516601137628e-03
2.353269431873518044e-02
1.208767331079423774e-02
-9.852237023730527760e-03
1.922881940448514793e-02
-2.356051012967905027e-03
1.162544117063922348e-02
8.240120038660989424e-03
-8.759135644996800252e-03
-4.062708538094065777e-03
-8.517196575080810544e-03
4.367146615518107539e-03
4.701963579069903115e-03
8.275876008197549996e-03
3.696442953781989890e-03
-4.626861426972278188e-03
2.112560086009351162e-02
1.929952758334657625e-03
-1.716919966332201234e-03
-1.032857176801068796e-02
-5.952578834037946381e-03
6.732597658704558667e-03
-3.767481065638724098e-03
1.036620750873322103e-02
1.381451692348608165e-02
-1.906136693713006078e-02
-1.894419169101495661e-03
2.616959590821399482e-03
-1.441959178238196699e-04
-5.861911144238458882e-03
1.071754963300176021e-02
-4.917576995095747014e-03
6.314878659536346008e-03
-3.010681806230521874e-03
-1.211260821320863344e-02
-1.219924408374550157e-02
-7.907036063968317721e-03
7.704570261049902176e-03
-4.638028958374549628e-03
-9.269673346751423557e-03
2.015830801465314447e-04
-1.110680608108743743e-02
-1.259669890425343594e-02
1.369651917489124460e-02
1.459321790167985699e-03
2.411488227891270958e-02
1.705878567761094644e-02
4.175726255951157234e-02
5.833235426794616124e-02
6.653477515665098818e-02
7.874311634603310683e-02
9.508734857729973788e-02
1.019871664932139460e-01
1.167257887631642510e-01
8.102643168573551991e-02
8.018934843258415657e-02
8.908867808684617362e-02
4.191970384504807579e-02
3.502631326980491788e-02
3.202249062585497963e-02
2.467870329255842515e-02
2.619729925703113971e-02
3.719261633955877559e-03
-5.496099854485285430e-03
-2.618988928490671979e-03
3.627879778076124884e-03
-5.303537126501401897e-03
-1.972363785208447115e-02
-8.313059456719586876e-03
1.379717900600719444e-02
1.157665979961172847e-01
2.375791465900562727e-01
4.039020119057745717e-01
6.095893289287442895e-01
7.997518855830578755e-01
9.545629908880827186e-01
1.005342025970799913e+00
9.426128083041759309e-01
7.882392355256825356e-01
6.186294958655136345e-01
4.051304404806877479e-01
2.487841288539556217e-01
1.347502395231492678e-01
2.040041995132935073e-03
2.054758332248136574e-02
1.653161320697835862e-02
2.647725631783715006e-02
1.152048867749489169e-01
1.341723971696511808e-01
1.389125962907180878e-01
1.793190958260627854e-01
1.983462176310951397e-01
2.134004491667891579e-01
2.434561830904233837e-01
2.722627867287021330e-01
2.799056373514369200e-01
2.941326524291542066e-01
2.965875983476869426e-01
3.017779213554730444e-01
2.950950802827566610e-01
2.927084245467619916e-01
2.745984865912989847e-01
2.828044732454547683e-01
2.620831342048660084e-01
2.456288277318527669e-01
2.013720093366160868e-01
2.011905430863843158e-01
1.719625879692312231e-01
1.565480891384340434e-01
1.252449311097783291e-01
1.041709305232976918e-01
9.700376705122586152e-02
1.825329921629971833e-02
1.572692868032412455e-02
8.627874389654980811e-03
2.500661088540068883e-03
-4.618132848994504526e-03
-3.972138852173532318e-03
1.050262195633772577e-03
-7.254513270264590849e-03
8.074273718685364559e-03
-1.035047003275172718e-02
-5.460163613639917174e-03
1.715634142380873103e-03
-9.091542110762951961e-03
1.687500517481389448e-02
-1.595657744244589893e-02
1.577968890242140848e-02
-4.730348362361520669e-03
1.933734585172154630e-02
-7.861196757809513908e-03
-1.689297561657741560e-03
1.501283090250988411e-02
8.771702400351836029e-03
-1.004729999789526901e-02
-7.184870411974371603e-03
-1.377420974327318338e-02
-1.990467934046466145e-02
-7.343685276179730097e-03
2.407270049759173327e-03
-4.134132702119544360e-03
1.014430024074612115e-02
1.509593057789332610e-03
2.281016015748839332e-02
1.617893755995892385e-02
-7.422240320022825168e-03
-1.375673799859564216e-03
1.000092499304906346e-04
1.769680460362108021e-02
-1.582026100493136300e-02
-8.447796342197598854e-03
1.681295455553983437e-02
1.476944349959575858e-03
1.063047702534423988e-02
-9.272580722384621624e-03
8.165903774051557623e-03
-3.035266003463497290e-03
1.367622788212738416e-02
6.044679995234223877e-03
9.232584977678006538e-03
-1.072307862680442481e-02
-8.656909836093696839e-03
2.627399118367801552e-03
-6.699114091488577068e-03
-7.612322529349070145e-03
4.686337651595864559e-03
-7.112554345328426543e-03
-6.925220902249761175e-03
5.729082128050328078e-03
-9.427340512882138868e-03
1.004708869952092125e-02
9.698458597525064229e-03
-8.538294956444149666e-03
-6.628139089649442289e-03
7.751841816898303109e-03
2.698475498224863801e-03
9.536918375271817225e-03
5.955038336723358569e-03
-1.085508201191258230e-02
9.631050927345376211e-03
5.333947011560781319e-03
8.138696634091516224e-03
-9.893528467439179769e-03
1.316476137752769712e-02
3.592969405772142560e-04
9.879575310372298858e-03
-5.419734430743920186e-04
-5.733143000145955737e-03
-4.763051014226856589e-03
-3.064707827062471742e-03
1.998440415864907380e-02
7.026776199934005318e-03
-3.074090709146542946e-03
-1.386313547994868578e-03
8.624581561295792051e-03
1.917514416669666372e-03
5.458142371794280287e-03
-1.281220651160537745e-02
6.276260010331408123e-03
7.304477445095101593e-03
-6.822010060076190430e-03
9.902776801281484159e-03
-2.063415572045817006e-02
5.599451540990089612e-03
1.783014790318121837e-02
-5.033656125108786246e-03
-7.840614693402482224e-03
-5.567494234950327511e-03
-7.892560182961846915e-03
3.486942197676526443e-03
-1.042563436994066277e-02
1.956463974426283017e-02
2.282166638688963231e-02
3.120765840717009895e-02
4.116838156688674283e-02
5.055438615869848468e-02
7.001105980103698723e-02
7.304889575199557950e-02
1.064742498915411395e-01
1.024966918796481608e-01
1.019154279392324031e-01
8.896197643687600576e-02
9.074519578404567632e-02
6.163626296488645961e-02
6.303471125318239887e-02
3.125331199799653153e-02
2.182654971927287801e-02
2.270888759354803416e-02
-4.291610987240733997e-03
-1.270324187779628931e-02
6.809245267922561101e-03
1.095552169800659802e-02
9.871776753799915358e-03
-2.010450563973057228e-02
-1.384930474659439720e-02
3.458258425805211481e-03
1.370815074570291489e-02
1.656649082483780677e-01
2.785418551083116423e-01
4.796472857721653660e-01
6.712403608063284288e-01
8.713257043187140338e-01
9.754224414595905612e-01
1.000464723894320729e+00
9.110816928688427740e-01
7.379905054180601054e-01
5.180523778555382597e-01
3.607296905670606124e-01
2.041241860519649176e-01
1.180662642111402344e-01
-1.178105579920212323e-02
-1.855590431293193928e-03
-1.324557787073332021e-02
8.891119897454470566e-02
1.094432482151054958e-01
1.288830415972927745e-01
1.553618822159451018e-01
1.707263650129297872e-01
2.018194376496412479e-01
2.301596796691660340e-01
2.360598596069360400e-01
2.596323022794770341e-01
2.900667305206901525e-01
2.889437262294730635e-01
3.010055326275324905e-01
3.003674259584170336e-01
2.801365136314870607e-01
2.731054219450327891e-01
2.786874103924590895e-01
2.861351607234870476e-01
2.456529119774209513e-01
2.352514699643021012e-01
2.101906414778852150e-01
1.719083066033721130e-01
1.580214624664368905e-01
1.464632818025250749e-01
1.284972253058340175e-01
9.081684022980818227e-02
-7.642370546983038616e-03
-3.196306056041936603e-03
-3.140009563575844008e-03
-1.922635354009741282e-02
2.297625189433475171e-02
-2.229322051798190030e-03
1.628717967208177797e-02
-2.305448213518295972e-02
6.420483293144539291e-03
-4.974875860478488072e-03
9.553704042499441135e-03
-1.580979636886981413e-02
-4.193102138723910598e-03
6.401884826320671656e-03
-1.159028182159243386e-02
1.075569749747934227e-02
9.759995458701712506e-03
7.676882577847420411e-03
-1.319274923178649812e-02
1.356248226678482584e-02
1.860370291389360853e-03
-2.490364002090450762e-03
-1.157508124347486275e-02
-1.180672742524896054e-02
8.412853742339142932e-03
-4.846112556997554492e-03
-6.402343255963595381e-03
-9.244046081377880683e-03
-1.357905446998935312e-02
2.051814614957477717e-02
-1.522737489101540914e-02
4.136863304384669551e-03
-2.717261080032643168e-03
-1.718469735040639018e-02
5.083652634317646288e-03
4.500129350831928894e-03
-3.361854325730322655e-04
3.485895791125186334e-03
-3.323012090163975085e-02
-1.100174433827400162e-02
4.959618168364300639e-03
1.174077658863488353e-02
1.005083269537351137e-02
-7.863407482243598562e-03
-3.185858209465700173e-03
-9.298611973589316834e-03
7.964866126955712569e-03
2.525555818492955778e-03
-4.105283805637845868e-03
-7.869977609891620068e-03
1.655679443308874510e-02
-4.218739980245733755e-04
7.516729409188086831e-03
1.027497939881810880e-02
-1.134454577665711637e-02
7.559505045866293620e-03
2.013881754129546921e-03
-7.763057120555016781e-03
3.584705573845779585e-03
-1.316284725941739391e-02
7.754380713753759174e-03
-6.414885839407164815e-03
4.580758274008900517e-03
5.103341064263885833e-03
7.855090956168842356e-03
-4.614413592143921071e-03
-1.322154702784386973e-02
-4.984184337541724616e-03
4.350283968931860021e-03
2.291761075517709939e-02
8.270613294552954520e-03
-1.243971912418332867e-02
1.389928893716385443e-02
2.055987663129379105e-03
4.754116325666927524e-03
6.855551612410533402e-03
2.225216589608197335e-02
-6.694651495372314597e-03
5.783821778075351298e-03
-1.162450376647510475e-03
-3.292789569815179375e-03
-1.311274468782647716e-02
-1.349680976281339428e-04
-6.969206497182588861e-03
-2.602110690442142622e-03
4.292575654133431312e-03
-9.805426380225914021e-03
4.838791530979614933e-04
-1.667970559888623918e-03
-7.622339236615772659e-03
-9.976213933594714825e-03
-2.014152599842478075e-02
1.458294442144790655e-02
3.497136496233246416e-03
6.390943419629188660e-03
7.919899720253049252e-03
1.768116826700994251e-02
2.404985711120193048e-02
5.828485818732031393e-02
9.729519382682019768e-02
1.613401054911909049e-01
2.602836412602591021e-01
3.804174646869471488e-01
5.324572766502826404e-01
7.355834075746940925e-01
9.056478300655947944e-01
1.059458754116463064e+00
1.163387403771717121e+00
1.188249329839545787e+00
1.172880423752827195e+00
1.049187245550147196e+00
9.039608164914832988e-01
7.390234753991822281e-01
5.329478091598719436e-01
3.954553115319236478e-01
2.521557274094233247e-01
1.795473685615153470e-01
8.466598355988491642e-02
4.936681991265746972e-02
4.459208134191543216e-02
-5.444855544925684618e-03
1.533666477542565756e-02
-3.761159620883588930e-03
-1.133687924478207418e-02
7.521952193260941257e-03
9.230540445838865404e-02
1.804654543921608290e-01
2.748156276011807231e-01
4.477453971507344699e-01
5.816996817646428175e-01
7.253387109970937940e-01
7.942124536830501569e-01
7.795086892019447156e-01
6.743752727834205762e-01
5.432605359519688815e-01
3.605512893062006730e-01
2.239945901429461483e-01
1.215562542828884374e-01
5.753353108428677087e-02
1.256806545175566565e-02
-1.305743660816511588e-02
2.303994635239403795e-03
-1.314993685330401348e-02
-6.103139838179394427e-03
2.161326012496456520e-02
-8.777521950903865999e-03
-1.259524302928305590e-02
7.498802843298179276e-03
-4.994522976395301787e-03
5.485381947862596683e-03
3.043309553328887060e-04
5.870826892467076799e-03
-1.209533936800955001e-02
9.750922538003761741e-03
-9.056678710612175304e-03
1.632142270485060619e-03
-1.938892235476049122e-02
4.940596536347530848e-03
4.572085695183737870e-03
-4.565666550437006213e-03
-2.426580201484793489e-03
1.249251684363014356e-02
8.850580358126032554e-03
1.082744790633495373e-02
3.606346561309358226e-03
-1.644687649485964938e-03
-2.753594899320464459e-02
-7.354787092687235274e-03
-3.699144910369118761e-03
-8.305052051589319889e-03
6.466397569765876437e-03
-1.340699448919839771e-03
1.291146222805109912e-02
-9.032484367711727732e-03
-1.740223179768701778e-02
7.233075792172356626e-03
4.539466777236060048e-03
-2.858633173800757127e-02
1.630984910722734285e-02
-9.632820841631337810e-03
2.652623598805645046e-03
7.477292939359514619e-03
-6.330310053280658114e-03
-1.420452792223864417e-03
2.603911709840505372e-03
-2.296213914705506204e-02
9.379243120475709919e-03
-9.348996646281261189e-03
-9.047672034818167973e-04
7.652260022371407816e-03
-9.980811448185385529e-03
1.425277228617886048e-02
-2.579073900670242250e-03
-1.218945879487286915e-02
-2.757970196775978971e-03
-4.225849345628921588e-03
-5.517523592593534879e-03
-7.314646201119842303e-03
-2.060656275540987195e-02
-7.117835037716940122e-03
4.695036730883662274e-03
-7.368391031521396781e-03
3.983958736117826534e-03
2.209977757937647488e-02
4.551580514007904331e-03
2.200921062963834014e-03
-7.588219839424649579e-04
1.025011549551796582e-02
-7.907574891374504270e-03
-1.099029286077972054e-02
-4.241657669622649236e-03
2.207952863944916046e-03
-1.218589576503519532e-02
-1.552956262434326525e-03
2.915052415022448707e-03
2.955879237342207318e-03
-4.689830798085460432e-03
-3.001481542752440501e-03
9.184485579464062716e-03
5.521853636208740382e-03
1.763954767122957040e-03
5.727136338428267907e-03
2.168920259259933189e-02
1.692316977373396064e-02
-5.696856322453517155e-03
-8.344435629621695799e-03
1.244811999097674739e-02
-5.662034959365007392e-03
3.892665898531624553e-03
-2.608945940982392367e-02
-3.443357073669243637e-03
2.380272714055439026e-03
7.426467872673141180e-03
1.005119461553903235e-02
-7.298262385297345266e-04
-1.543829942085594119e-02
-5.667326909713247748e-03
-1.695846924956457766e-02
1.017870869740765231e-02
8.771546853436491473e-03
6.448531264041340409e-03
2.188539790246163137e-04
1.397586310652029241e-02
-9.259251343381685526e-03
-5.747372438483459335e-03
9.171007168890745256e-03
-9.819120656972343472e-03
-2.097644407971807883e-03
-6.217534376728774299e-03
-2.590008634797079032e-03
2.034462053094595463e-03
1.887236408944247684e-02
-1.041347721201237812e-03
4.282390038258772520e-03
1.411236804937191121e-02
-1.159361264558696029e-02
8.603108405764794964e-03
-2.163156652457860069e-02
1.362733012592297864e-02
3.867548607216656029e-03
2.628831644464477320e-03
9.184344388400813783e-03
1.879292271093058013e-03
1.749559453890247446e-02
-9.936800464455993603e-03
5.357874420358206026e-03
7.166616345510439488e-03
8.970249563799163189e-03
3.653588176195373544e-02
5.030023021108877973e-02
5.948998122752104101e-02
6.899956996931443098e-02
8.545829007145600009e-02
8.400343898905483775e-02
9.783337753550226668e-02
9.801958893655614291e-02
1.150123492193949604e-01
9.037445815578593056e-02
7.700158467195619694e-02
5.851640551357401715e-02
5.038269491367589753e-02
3.293212975685563121e-02
1.856048263199944204e-02
1.422435164741507607e-02
4.589327293278556638e-03
-1.428593618019325003e-02
-4.950426676038383218e-03
-1.945533953819915396e-02
1.033313128714361331e-02
1.636435265499716282e-03
4.166513690851516780e-03
2.219889861343039839e-02
1.371755596843630409e-01
2.354807275325115357e-01
4.297230695588765692e-01
6.052914579957259233e-01
8.012154488524810825e-01
9.550921208571444554e-01
9.962361459612201209e-01
9.435242864315842581e-01
7.940366893902136569e-01
6.158222787011958799e-01
3.973832398754744144e-01
2.409253773268305587e-01
1.351074741729475226e-01
2.855365893208883492e-03
1.214142617470274042e-02
7.238995924021326273e-03
1.067187389820652491e-02
1.067709050666379861e-01
1.151243639115152873e-01
1.468716612508801089e-01
1.660050600597975934e-01
1.971372291452424541e-01
2.200858829087966873e-01
2.404528673935155125e-01
2.631056711834306450e-01
2.775556638734890669e-01
2.889587202759388296e-01
2.880518981151287683e-01
3.124123354384050200e-01
3.066505263349275645e-01
2.957954253704096481e-01
2.842550401802510507e-01
2.982656808234974144e-01
2.538772237479127170e-01
2.409780191664813997e-01
2.382441713987357990e-01
2.099448697155079924e-01
1.751796198472017341e-01
1.488175902774289405e-01
1.285736338165522630e-01
1.330731717256177782e-01
7.427022016713306918e-02
-4.287410722508818578e-03
7.115179554607652460e-03
-1.670992203660591046e-03
-7.378826480261445851e-03
-1.226644271416299200e-03
-4.440761200812091448e-03
1.084309614314984396e-03
-2.609240218541591244e-02
1.385025113851110108e-02
-1.649164447515947748e-02
-7.309709975122299919e-03
-4.529584083270567219e-03
4.588946748241908534e-03
4.439536810460976111e-03
-1.564309072897719383e-03
-1.224608585109787304e-02
7.046393840750162819e-03
-6.490440800488772588e-03
1.584328310829664606e-03
8.111480747218173526e-03
3.372314103247769338e-04
-1.712265614270503875e-02
2.104801036675839343e-02
-3.346486136570187529e-03
-5.193490640200416376e-03
-4.668782881307241388e-04
8.948899699928083984e-03
-1.033463646463199034e-02
8.027496172795533375e-03
-1.532749231641936973e-02
-9.205697504582043564e-04
-5.643311960131069379e-05
-7.243413570694507038e-03
-4.419819044061587781e-04
2.716624583827031286e-02
1.733885225142289474e-03
6.127031516576502291e-04
6.611845343076715349e-03
5.282473299443221290e-03
-3.018733504725308256e-02
-2.817099606526893372e-03
3.941465943463507739e-03
-3.803391802831813874e-04
7.829653163026403795e-03
-1.029498403904154612e-02
-1.276815473959515106e-02
1.826277555923003226e-02
7.194878409459280755e-03
-1.283594306110133650e-02
1.590631158355478589e-03
2.778039392885863976e-03
8.206632388780523563e-03
-5.092704343792556036e-03
-1.234159933094139405e-02
2.774621255755691483e-03
1.772931768298009790e-03
2.465059446006721486e-03
-1.529472500359868538e-04
-6.368779703449224845e-03
-1.394532285323702575e-02
9.815119068876151931e-03
-5.810897659010746778e-03
-1.888780907257031280e-02
1.147951812993648884e-03
-1.787856100845483173e-02
-4.346268603664083484e-03
-3.215481547716103877e-03
-2.838409508868768374e-03
-1.344509059786416771e-02
-4.140130438185922121e-03
5.254815739541841314e-03
-2.320120887414955577e-02
1.208216999126069703e-02
8.888303943976402430e-03
-4.552174616956735677e-03
2.444792642076453956e-02
-1.122733684819187359e-02
-2.281261139237021358e-03
1.729305904129035953e-02
1.341723214954397558e-03
4.859795992847039912e-03
-9.352839964675627518e-03
-1.199576632455636761e-02
-8.007827144621108839e-03
5.145045258546465487e-03
-5.108219869818627279e-04
-3.403955231257084404e-03
9.077250995574374925e-03
6.643142914826883835e-03
-1.083918971565215640e-02
-2.266352808919771730e-04
6.514006205104192447e-03
7.335417410632035212e-04
1.376692107084573694e-02
3.036123650186843981e-03
1.797698740637380596e-02
2.537241505968246551e-05
1.090707529671451625e-02
3.203188024215668575e-03
1.645969417840676546e-02
1.223771537270564383e-02
3.556087308243204015e-02
4.309880324058659035e-02
5.628297510564486683e-02
5.449211527844699532e-02
8.497912943598391611e-02
9.733670346976984467e-02
9.626764064256396192e-02
8.539184234997962419e-02
9.296414666592402176e-02
7.261202363517620106e-02
6.456585041919128687e-02
4.709013461670142481e-02
4.906961789291259396e-02
2.913929112521511378e-02
2.483303079115780840e-02
-1.027879916839355076e-02
-7.566330025164281700e-03
-5.823899134218621897e-03
7.277379888372344056e-03
1.613835440121348100e-03
7.131970391031736134e-03
1.439101435852551888e-03
-3.317659368136338834e-03
4.542869857740032373e-03
1.649480460433439266e-01
3.163540852956637228e-01
4.826258140734190905e-01
6.726052803632244226e-01
8.656114694654385433e-01
9.724947612816761122e-01
9.944274152804268851e-01
9.020394617343706622e-01
7.369895905519153745e-01
5.367939580026940272e-01
3.486490019243056460e-01
2.028870498179008164e-01
1.065329487447738976e-01
-1.894778739638419349e-02
-2.089313498450950848e-03
-5.669408433621173603e-03
1.098629311756874338e-01
1.087751133059868675e-01
1.419532203255967628e-01
1.523063637061569386e-01
2.038909911774312578e-01
1.967016951544642567e-01
2.148813104342627567e-01
2.541184799134889594e-01
2.803842606182104791e-01
2.751598778080994734e-01
2.723549955016547619e-01
2.975439659619812383e-01
2.939777303312519074e-01
3.011780628545747129e-01
2.942584022429379220e-01
2.811943639836114173e-01
2.582007265930182927e-01
2.355364964750802370e-01
2.285086714057043833e-01
2.026677189113968713e-01
1.903401335756739199e-01
1.638538482354978953e-01
1.288497149816382192e-01
1.217104537314421253e-01
9.519406552687248446e-02
-6.835660978257013069e-03
-1.814171656404111807e-02
-1.555517297053191691e-03
-9.836481674068194708e-03
1.556729408940088315e-02
4.232029638305058981e-03
-6.396059845150696768e-03
-1.185354468761683558e-03
-1.936464659994864253e-03
9.509551754741260576e-03
4.487174449769458680e-03
-8.677964571161890170e-03
1.342395064136971128e-02
1.076575591985506723e-02
-1.028466317231279455e-03
3.372217229506751374e-02
-1.152577472554223471e-02
3.447660323943689542e-03
-9.147947639701807174e-03
1.385555873296000565e-02
4.995974867067004381e-03
-5.744558203791001738e-03
-6.208664669449914797e-03
-1.684646381449883892e-02
-7.925703333390585192e-03
1.399514120978234862e-02
-3.545240254568428687e-03
4.093783388024001962e-03
1.862859612715184882e-02
4.620832592359291023e-03
-1.277410298424556945e-02
-4.440262105206564322e-03
2.849430539835177013e-03
-1.155422749497151715e-02
1.231728443133263580e-02
-7.894917610600684157e-03
-1.206055305810682264e-03
-2.819811052072300223e-03
-1.219073164058705368e-02
-1.506698966306788297e-02
-8.903399143263860185e-03
-2.950736713002342741e-03
-3.978100488981045797e-03
1.269227166163810865e-02
-3.824958083193259403e-03
1.785250346313943179e-02
-8.764400108638541187e-03
-1.111234999216535388e-02
-6.461645682989358881e-03
2.398562877591902710e-03
-1.001141998327457474e-03
3.523825034753432731e-03
6.281857695124916027e-03
2.023427039271101947e-03
1.115332166194829945e-03
9.400772063173809230e-04
-1.161984389481519019e-02
9.735460721364216224e-03
9.364382213801213800e-03
1.521039230271259597e-02
-8.711550503034489260e-03
-1.494968755323759432e-02
1.815332633143641392e-02
-1.266130883635268808e-02
7.886172936291799621e-03
5.994633120715150629e-03
1.861764032953600045e-03
2.555865407190111970e-03
-2.484845080817813228e-03
-3.572230954827393390e-03
4.556942604338713211e-03
-1.426708823248486538e-02
1.924492027521909751e-03
1.456360254345924476e-02
-7.866170176972355627e-03
-6.267133027480465204e-03
2.079971657914004776e-02
3.474175324768746971e-03
4.961860945799963099e-04
3.256962079607960553e-02
3.389789416684737535e-04
-5.931640878149196982e-04
4.903307405222798003e-03
8.927488222517261911e-04
2.068264463598774167e-03
-2.626850591595860165e-02
-2.510905249316524798e-03
-2.051955565046621049e-02
-8.004133285481881271e-03
1.372381582422920951e-02
-4.113552383022077950e-03
1.952992016970471478e-02
1.176929445182257894e-02
1.176323483518453526e-02
1.509536927242445710e-02
4.758281377542676431e-03
-8.117996301628920344e-03
2.431732259224768725e-02
1.332394819501712090e-02
5.112610566821932344e-03
6.327878124645782733e-03
4.178349092449476498e-02
2.608228134762199252e-02
5.433321095014579521e-02
7.490904841595011354e-02
6.985457473198609935e-02
1.085904102905082824e-01
1.048575493860473967e-01
1.046766097376217591e-01
9.473671335388360315e-02
1.000312595140023658e-01
7.833598034080177519e-02
5.723753457003318695e-02
2.867582321821120911e-02
4.037351872207355086e-02
2.344082279408476327e-03
2.268968736256213314e-02
-6.082348299265003845e-03
4.975647207207388976e-03
-8.564062344132282456e-03
-1.932690874489561422e-03
1.198454392255947397e-04
-5.027594914991747981e-03
2.296760946630544906e-03
-3.989521930917638327e-03
1.249426067420113945e-01
2.234674776166378496e-01
3.601403769904980567e-01
5.409896177036248588e-01
7.438558422999503872e-01
9.040676974544117339e-01
9.912670838025131603e-01
9.631034099804108850e-01
8.619288680040932960e-01
6.786412249624292903e-01
4.760452029258916418e-01
3.150144956245264360e-01
1.681611899168231061e-01
6.771851718903942885e-02
5.280619602861345331e-03
-1.288528917201724232e-03
1.757178037628609121e-02
1.095865513333991181e-01
1.032781339577128754e-01
1.402898207250684592e-01
1.600595235982840980e-01
1.921695938067916609e-01
2.082925434668262687e-01
2.241244551304151233e-01
2.652702586541468843e-01
2.700969321028806602e-01
2.903809647152020834e-01
2.836933809536869577e-01
3.175677173398059883e-01
3.017593081131242916e-01
2.994754353353785148e-01
2.869128099610615545e-01
2.720792655205050425e-01
2.487743631401546085e-01
2.271585967410743589e-01
2.363082665634101687e-01
2.025885137916611234e-01
1.896132600830235382e-01
1.615438064100390148e-01
1.361955247039204342e-01
1.037167244158044566e-01
8.927633839193306609e-02
-2.161204566031000099e-02
4.163173776423602541e-03
-2.067600238261569495e-03
7.620455287585671360e-03
1.137423463631164269e-02
-1.683306880734765690e-04
-9.906811217078780041e-03
5.966971668885651461e-03
-7.917566113270610786e-03
1.312417948627970544e-02
-1.278703810285512776e-02
-6.767344419330717509e-03
2.977237610192322217e-03
6.547030800364658787e-03
-1.301292701700851491e-02
8.851745742488537072e-03
-9.380537515568176249e-03
-1.449668394950092256e-03
-9.302832150845326276e-03
-1.408732219141501686e-02
6.748704883690019064e-03
3.150738980527210790e-03
-2.007917133761755873e-02
-6.799652184335272520e-03
-1.766465298749054016e-02
1.225992859586376655e-03
8.353571369186844897e-03
4.291348954327546192e-03
-2.726514145195222793e-04
-5.989634064950240255e-03
9.143564629956392464e-03
8.016420895868615632e-04
-2.143998884049179085e-02
5.483283733011204072e-03
7.441506689253518485e-03
2.362682079519269271e-03
2.611150528816965494e-03
-2.143687853343048157e-03
-1.898225970912168284e-02
-2.137178753435382134e-02
-1.386743984099413074e-02
9.769344981239893710e-04
4.196695910672940989e-03
-2.040780819936562074e-02
-1.325238662475642336e-03
1.756279938154245391e-03
2.847297135721315198e-03
-1.441877362535334134e-02
3.255405409063355000e-05
4.255884847241770373e-03
-1.573597378370858446e-02
-4.191067020388733813e-03
-6.049817268919185399e-03
-1.885998296157537354e-03
-1.216744690308590310e-02
9.740605039521111480e-03
-3.507997961014295706e-04
1.342860659349097083e-02
-9.789277467981227429e-03
-3.998693454867689734e-03
1.582588233311008757e-02
5.921543026623501613e-03
-3.939934574647955927e-03
7.222772738498296936e-03
1.242373545209636380e-02
8.449879539198000902e-03
5.436981497680950723e-03
-6.575663636224866881e-03
1.932258167204571001e-03
1.743787456716720547e-03
1.414986093770122765e-03
-1.122971744428579713e-03
1.833733024500256228e-02
1.759492096341400483e-02
-1.327806816025804172e-03
4.259389657693918134e-03
-6.055636106554513921e-05
8.182465925675161400e-03
9.214885359539107604e-03
4.130591264361399497e-04
-3.857843466766919943e-03
-1.593614822877752408e-03
-8.709471551645487850e-03
-4.534844440545325595e-03
-2.705559585948102974e-02
6.857738533936078018e-03
-1.309297900763616810e-04
-1.285255071214223832e-02
-2.452304226783981814e-02
-5.256472395582748730e-03
1.594648982652096397e-02
1.386389206181719985e-02
5.170947282836349350e-03
-6.162015419608467617e-03
-4.876650876404266602e-03
-6.188300067564740138e-03
7.487143400648796181e-03
3.978206065568007336e-06
-1.934000699945618131e-03
2.124741493166644804e-02
2.820318663759285860e-02
3.112943075806529070e-02
4.177004871560594662e-02
5.275173525520821666e-02
6.327551610305882923e-02
6.365569102973718529e-02
9.423235083615538743e-02
1.063078890753376277e-01
1.040932278440810377e-01
1.075991266621837417e-01
7.712935578659339819e-02
6.704731971885653785e-02
4.930102050975111727e-02
4.771140610288374800e-02
2.584259347204819618e-02
3.577180258547951741e-02
1.175032447164139383e-02
-5.006818985695361823e-03
-4.005294226053816679e-03
-2.965468137973452292e-03
-3.492508495717163569e-03
9.093179758032688548e-03
-4.217932761167505519e-03
-4.755224526438024853e-03
-5.953649032072685747e-03
1.220707955975037090e-01
2.588274578662891345e-01
4.355747812185366552e-01
6.137729626018929574e-01
7.830176097172993899e-01
9.484144577706132839e-01
1.017065280545904837e+00
9.330885438688532041e-01
8.106829732990830095e-01
6.049809567767422402e-01
4.122119017316796530e-01
2.314246572113050071e-01
1.464555647493627211e-01
1.026262735691747287e-02
-1.481065938125684066e-03
-2.140722857006814323e-03
-6.757004352395352964e-03
8.038700184165792351e-02
1.204324319927616987e-01
1.401437871220891918e-01
1.519019195763736951e-01
1.934081331260767422e-01
2.115319846894031242e-01
2.344939328463022388e-01
2.511866036347339404e-01
2.597058192704660429e-01
2.891565409043442836e-01
3.132970260971978393e-01
2.902482901092798273e-01
3.042877013246613194e-01
2.916659793066774253e-01
2.698102229083905734e-01
2.842904917560246658e-01
2.637466039608546420e-01
2.294785393643259952e-01
2.146732769122269568e-01
1.844884706645353034e-01
1.693205941859750874e-01
1.463761478307079589e-01
1.337883411116919941e-01
1.100519618237931763e-01
8.213788116529265049e-02
-1.421997246329368206e-02
-8.680060520152623957e-03
-8.730924696121805315e-03
-6.531832609663073934e-03
-2.287692726143006859e-03
3.874303808076501061e-03
4.676068537493225513e-03
2.072643610622026608e-02
6.274877912453198387e-05
1.304007852519829640e-02
-1.087479086709477842e-03
-1.614427693018272159e-02
-1.404524735781156582e-03
-1.152894810733007952e-02
5.770935115896809117e-03
8.655382831201242910e-03
7.395786710178871119e-03
4.350517318010910066e-03
-5.282991116876759909e-03
3.948763534840847057e-03
-1.300329800484476038e-03
-7.977360269689745542e-03
5.690501821671087659e-03
9.479491128991128154e-03
9.300266145894752617e-03
-3.251110882246394194e-03
-7.920331046699695399e-03
2.455799053776628812e-02
4.948993773133477866e-03
-1.109084127669469899e-02
5.108668996408140045e-04
-3.371100390341704844e-03
1.587898388948050590e-02
-7.914486651723503380e-03
5.312037949339725243e-03
-4.683827385582183152e-04
3.368488281469373628e-03
5.047616953840775890e-03
1.261292838359537836e-02
-1.050589683100600601e-02
-6.936605874788434817e-04
1.337730513721759398e-02
1.688478398787394627e-02
-8.376620648303636021e-03
-1.004041184616457673e-02
-9.383219575824862770e-04
1.348057100917339751e-03
-1.763457145004940522e-03
2.069805992741901787e-03
-2.356660588598397457e-03
-3.207497875633955053e-02
1.840588529487530850e-02
-8.840749173890435214e-03
1.175254316156907307e-02
-1.146416569293814058e-03
-5.105147891062645528e-03
-8.421106231194573286e-03
-1.873736218171466765e-03
1.113250258064792803e-02
-1.452786664721596004e-02
6.588056457610571952e-03
-7.665161386138581376e-03
-6.615266666661169699e-03
-7.891604826037689618e-03
9.294561840723447252e-03
-1.624893499786516857e-02
1.879513506239376998e-03
5.600205556839368479e-03
1.736481650087996070e-02
-1.061363512520847353e-02
6.404973961683663695e-03
-7.738158212423474833e-03
3.526418615552832144e-03
1.453096686778626578e-02
-7.924621473508399339e-04
-7.943072075918546429e-03
2.652112851673761769e-03
2.536393368513095020e-02
-1.450529191701634309e-02
8.761791052221180182e-03
-7.000974908383661779e-03
-1.243149012977353210e-02
-1.075817540008768003e-02
1.222957145248292771e-02
1.147310422981911125e-03
1.986976901700461366e-03
-6.704043322024602972e-03
-5.390973643381276933e-04
5.284753411161106570e-04
3.922077104942231496e-03
-6.641345318395339278e-04
-4.569168962218983499e-03
-9.041433249550742896e-04
-4.528841937977265766e-03
-4.154175588492683806e-03
-1.539686349097971543e-02
4.945149806604597596e-03
-1.357621890925829466e-02
1.176809850253573812e-02
-1.203862086860036339e-02
3.040091140444323159e-02
5.709274093520366744e-02
5.750569086409280245e-02
4.873090996042606787e-02
6.198597541274213085e-02
8.304994014773382782e-02
1.002287543942234765e-01
1.084135603754271815e-01
1.015807442766231833e-01
7.983313323280993856e-02
7.202272369083685677e-02
7.081414154325450794e-02
6.717023108221971406e-02
5.304224209646395127e-02
4.803793804009176549e-02
2.000257354192834860e-03
-1.665035438343564697e-02
-1.258531921651830088e-02
-1.167543742220310266e-02
7.398413736278104842e-03
1.364388978223489641e-03
2.312988818375940996e-03
-3.461977302743669740e-03
1.994539487241099585e-02
-4.715463689000559330e-03
1.688452834424342686e-01
3.076294817392177805e-01
4.649685997705472196e-01
6.656926116741317401e-01
8.665950364139611839e-01
9.836012111417015147e-01
9.975463689334860273e-01
8.961084028896795228e-01
7.375249416955385051e-01
5.368944219234803583e-01
3.581932531421042065e-01
2.034843165689004529e-01
1.059435184926249551e-01
2.171631873620476130e-03
1.079383381119946314e-03
1.075001713044292789e-02
7.228331696882688007e-02
1.159660665775309463e-01
1.337828999564528443e-01
1.472136345935746438e-01
1.771167282625033257e-01
2.024537773316448519e-01
2.337935751465825829e-01
2.251629854073297354e-01
2.607201372337851764e-01
2.740883877607238062e-01
2.706680492222203194e-01
2.831881663342171729e-01
3.101685052803918041e-01
3.039750070795773085e-01
2.898885886696178082e-01
2.708359419582370142e-01
2.597820210923405537e-01
2.541355945081597567e-01
2.372696742729770158e-01
2.089210856384809134e-01
1.716643367238830375e-01
1.729883217597378842e-01
1.508194766382051910e-01
1.151850368641558209e-01
1.141130740810111510e-01
-2.762894476320956316e-03
-9.966062751694466579e-03
4.325661866004549064e-03
-9.062851857478378473e-03
1.855733995610521839e-02
-1.256851668077009314e-02
-3.940751187441553748e-03
6.691072654922785440e-03
-7.097138618106305953e-03
1.695176435037235030e-02
4.403345381804424363e-03
-1.660345687990682009e-02
1.615556630828953247e-02
-1.331577084798658828e-02
-1.397045335470969984e-02
-6.590316910287271485e-03
-2.587075850179208162e-03
3.256159727804829214e-03
9.719041310147882515e-03
1.091198695480077646e-03
-1.946154771383491874e-03
4.139605538173120845e-03
-6.737894597862974753e-03
7.806157372516976667e-03
-6.704739458653450647e-03
1.023903221248932509e-02
-1.659084931346668530e-03
-6.620065085422061416e-03
1.498036510512680856e-03
9.284476402155827576e-03
1.760860379762629879e-02
-1.033234838584431775e-03
-1.366544097736963406e-02
2.791346459499821110e-03
5.406046617885096675e-03
8.485629510651814412e-04
-1.807588397696091934e-02
3.679765648132741259e-03
-1.753841325639765927e-03
-1.371062493382669244e-02
-5.410913019637680205e-03
-1.250346723200346829e-04
-2.692095018491148101e-03
1.128108093494066891e-02
-1.347851286075213428e-02
-6.742058290352802991e-03
5.222378656512999089e-03
-1.128077818906274288e-02
1.333819527045343283e-02
-9.131819967809370192e-03
-1.220468456473260133e-02
-1.154909267977630508e-02
7.516740757778812843e-03
7.491132590671574325e-03
9.028331901879944540e-03
1.155320953867858443e-02
-1.557320775316974959e-03
4.550927395170109926e-03
1.478416781258653535e-02
1.070819774671303778e-02
-1.774622046051038335e-02
1.150161611506186725e-02
1.080999622967076038e-02
1.200672756488485246e-02
3.215906127441044409e-03
-1.268833844138188283e-02
-4.311083758178310341e-03
-8.188527517196462005e-03
4.044937774533089760e-03
-1.343862347945998237e-02
-6.875813308565109812e-03
1.204661694281582845e-02
1.173629168124628794e-02
1.032716863791969739e-02
-5.477287148839860042e-05
1.414687172300969562e-02
-6.435017524383896889e-03
3.878063261927929169e-03
-5.435025883565971268e-04
1.835262318098607182e-02
-3.201238161212286056e-03
1.991699777321921227e-03
6.750450385983937374e-03
-6.448867085195978364e-03
5.727697477680830998e-03
-4.145158763773037353e-03
-2.519066757689341750e-03
-1.561157222303564095e-02
-1.375649689945134663e-04
1.045796335217495307e-02
8.685206961469994769e-03
-1.370136128406368621e-02
-1.285498139621794010e-02
1.670130287312442813e-02
2.080487513646112410e-02
2.797280737529554868e-03
6.149811542238861975e-05
-1.649728719372245064e-02
-9.556953372709609679e-03
-1.388228597345169887e-02
1.309396170049466693e-02
2.914541614699634256e-02
2.731900090980170920e-02
4.288759592539908433e-02
6.093105951724652608e-02
7.412576143985422084e-02
9.399158915418900917e-02
1.005763848651706482e-01
1.178382191661277445e-01
1.046503732231299222e-01
8.854107001493660700e-02
9.050816976874458131e-02
6.072483348661719682e-02
4.904493634770516058e-02
1.711679036667790310e-02
3.667786972119334993e-02
7.098073538897453454e-03
-2.450279758672211511e-02
-1.443050674274746516e-02
5.279471503417009458e-03
6.352160988178153812e-03
4.632682300732260221e-03
-5.408043304709834586e-04
1.429095325221470085e-02
7.624425416738466431e-03
1.149280944684231281e-01
2.200069594958656560e-01
3.629540995073714527e-01
5.485221957069937870e-01
7.489285734680722895e-01
8.923271869520261745e-01
1.004991626597610654e+00
9.655576281251730952e-01
8.549786754058075200e-01
6.736411999271127993e-01
4.787172856679044464e-01
3.059660712650236758e-01
1.678284432887167665e-01
-8.654734747477908427e-03
-5.102174285736160546e-03
1.427220360503763871e-03
5.910260572090701714e-03
1.014159308934318299e-01
1.092557366707004873e-01
1.400221858745000769e-01
1.485934741334030695e-01
1.698885637135423288e-01
2.055221452009939886e-01
2.387195269287328281e-01
2.368899949628660573e-01
2.911574771959838381e-01
2.875588685122784094e-01
2.975418919730712930e-01
2.994638843989880228e-01
2.990964459186259417e-01
2.976410156700963761e-01
2.977055699621553586e-01
2.762647711158276453e-01
2.512332069473708351e-01
2.437237723817377022e-01
2.209068211226248579e-01
2.025568972015898694e-01
1.707747007162694342e-01
1.364970291586895812e-01
1.276126276922944780e-01
1.005964816295477210e-01
9.359734868817742859e-02
5.300194302021610238e-03
8.908507748375003865e-03
-7.352777376023257247e-03
9.409334854640879001e-03
2.023320698454227507e-03
-4.701004252762666646e-03
-7.410965142585614149e-04
-8.963169031289115393e-03
1.027926033334135812e-02
-3.464262006354315582e-03
7.005388391286411671e-03
9.369601443001014315e-03
-3.980619669549222833e-03
-3.030951317542202213e-03
-3.046266768304044248e-03
5.819576487695501087e-03
1.691470901931560293e-03
-6.671516344754771337e-03
-1.272284832426184842e-02
-2.034562815464402083e-02
-7.809907807625909339e-03
2.258132111005114323e-03
8.141681321604334748e-03
-2.208386258892388113e-02
2.945364637183149961e-02
-7.447854850691412992e-04
-9.303033977282236522e-03
-5.044834194511068487e-03
-6.423452126292568051e-03
5.255743935967394087e-03
-3.511453147275379275e-03
7.314082022149043412e-03
-1.109839154875871294e-02
4.382746199894437672e-03
1.283295637108368414e-02
-4.554309474740014102e-03
-3.412313574014321470e-03
9.542963653261729226e-03
6.204755387056177206e-03
-1.710836576850776475e-02
3.519055653168007194e-03
1.761500848802845590e-02
-2.479727065378343077e-03
-1.126706566263274527e-02
-1.111810855056596416e-02
1.015994572338074428e-02
-8.447988530764463655e-03
5.764182163283308388e-03
3.788379604928889238e-03
-9.871960542231968463e-03
5.813490176367013158e-03
3.348794939908002113e-03
3.276144087537964655e-03
-3.449365068092892245e-03
-7.979489631099637159e-03
-4.341950211476348388e-03
1.254485095763275410e-02
-1.025789190072001408e-02
-3.396112982635389466e-03
1.845460595914307986e-02
-9.456115167692439108e-03
1.936945822971592162e-03
1.180163659564960506e-03
8.808128671904167208e-04
-1.147007447513052891e-02
-6.003693199941182584e-03
1.353676465106893982e-02
9.521573035328953494e-03
1.632803258853965985e-03
2.027369113855062317e-03
-6.676732491083477161e-03
1.279880826826720192e-02
7.748532888004789308e-03
-1.405360756376052098e-03
-4.609552247227234612e-03
-2.468351560261274578e-03
1.439359634320512560e-02
1.543650433816807881e-02
1.470531974497743880e-02
1.687087271369431749e-02
-2.015884803489954857e-02
2.212927790296058145e-03
2.176262144934962978e-02
4.481682891164225600e-03
-2.002213953796002158e-02
1.225688260155569607e-02
1.612772220134309209e-02
4.289675079722729024e-03
8.845886050689753463e-03
-5.693739948861960970e-03
-1.722377808972976694e-03
5.510067718629580759e-03
-2.990986918779501430e-02
-4.043107367081241049e-03
1.757875627976645400e-02
1.217566348090736925e-02
1.995833131977425498e-02
3.219952630693596884e-02
7.807364187106706488e-02
1.274499213354921834e-01
1.883870295067227585e-01
2.842881430436143830e-01
4.271632887714058580e-01
5.991176449364885581e-01
7.702616890564655261e-01
9.792038788158338170e-01
1.104069099908157714e+00
1.172654361372686749e+00
1.204247592328046901e+00
1.138379458789584353e+00
1.009161220323016694e+00
8.352033775108854696e-01
6.740605855269803381e-01
4.847789235475373215e-01
3.618921416373098721e-01
2.265868161828852034e-01
1.240483750521782225e-01
6.407166917758373714e-02
4.717586072047932899e-02
3.314598665851665321e-02
-6.653445874399702836e-03
9.319088070997292791e-03
5.754929429984694325e-03
9.988402652083379005e-04
-2.038440276922086694e-02
1.233582927860565753e-01
1.999894718845021124e-01
3.162166918846945896e-01
4.905337617844554576e-01
6.394879421048862422e-01
7.414156067432593478e-01
8.137806560633989994e-01
7.722055806873032724e-01
6.342845024227964368e-01
4.908901216083285113e-01
3.187709371713659534e-01
2.061205586032992254e-01
1.131346879467296090e-01
7.987162414408067665e-03
1.148757212778117424e-03
-8.810539386210071780e-03
-1.473671802825111260e-02
3.453739263321555474e-03
1.150190526577686903e-02
-8.904204611109618403e-03
7.026734488071772859e-03
-8.503847968035709026e-03
7.315758303404873604e-03
-2.141129276598481611e-04
-7.016538996047594345e-03
-1.084329447388934255e-02
-1.589251565069579181e-02
7.909850403229817112e-03
8.447024195689343011e-04
-6.112457292843755281e-03
4.347358135404365623e-03
1.015253386774888494e-02
1.505757630701448808e-02
1.335162179513548625e-02
-1.445755561230130729e-02
7.214779336644471137e-03
6.920646222134126981e-03
-2.063340171340610762e-02
1.293183931805590506e-02
-5.863328810768852345e-03
9.815391869316439713e-03
5.457895930413635827e-03
-1.603807688366791148e-02
-5.900994057271755598e-03
1.050482595833969121e-03
6.470372681198439946e-03
-1.603286401818550949e-02
-4.627088607923053598e-03
8.964295397312442223e-03
5.728702505823161581e-03
9.014434923435659525e-03
2.046894109269579640e-02
2.195361259975162332e-03
3.717809021010314453e-03
-5.173216195645233099e-03
6.765919270324553987e-03
1.221070094550657029e-02
-4.421211564203899290e-03
3.710623600521675163e-04
-5.525259085459287463e-03
-3.124918337728222525e-03
1.606153920715722768e-03
-1.382410147921550765e-02
1.290166265933576951e-02
-5.413929510841935210e-03
7.759429379739417407e-04
3.997391732813255702e-03
1.162074623546080834e-02
-3.184308668293436839e-02
4.734124903146009512e-03
6.304517285167002792e-03
1.642382349890161158e-02
-3.606224400579774751e-04
6.930727799268469359e-03
7.021027535340267772e-03
-6.008019269696027523e-03
2.010968375386857146e-02
-4.382148343834806753e-03
5.967248958821311060e-03
-1.154157817805785864e-02
-6.867455546894482565e-03
2.811603566382854438e-03
1.953194041919836636e-03
-3.774277827991631348e-03
-6.442712339025927736e-03
4.719536114429440619e-03
8.539718984647616876e-03
-2.233904131184652822e-02
-2.229722323443418270e-03
-7.281213728810794514e-05
2.983872298320395990e-03
-1.198239754015313976e-03
6.295699879590394531e-03
-1.597462974204173075e-02
6.288614460228276158e-03
5.795901554662154752e-03
-1.134701042371582397e-02
1.231321473766512631e-02
-8.615812852177606729e-03
-1.034816431054347285e-02
7.113054595917247570e-03
-1.636580225990452025e-02
1.331741523402259382e-02
-1.009307667003189963e-03
-2.074511709361584813e-02
2.395678606285810228e-03
-7.429894757922460291e-03
5.924216545988966222e-03
-1.123232839509226769e-02
1.689372701671802354e-02
-4.009213891108682690e-03
1.231352746145592848e-02
-7.582952300596963562e-03
1.479429545765178350e-02
-9.522792103293844374e-03
1.975483338350974422e-02
-1.078500824563085464e-02
-2.777463125652287687e-02
1.230744898238449701e-02
3.075161320454372540e-03
9.424164418576613106e-03
-1.010694120664950083e-02
1.135653894025868103e-02
7.190704040592819923e-03
-1.160546432482262996e-02
-9.334165524644362846e-03
9.394709196553068312e-03
-1.429252827155325783e-02
-3.345539257871971411e-03
-1.635686733246298485e-02
2.203943183447259428e-03
-6.868892729245282356e-04
-1.589048030882056137e-02
1.881054352014916234e-02
-4.741972394613980062e-03
1.694654898969560203e-02
5.874072537042492222e-03
9.296843544960728617e-04
-1.582421148874339767e-02
-1.826177007104693578e-02
-9.250636582004867492e-03
-4.206856154052156585e-03
3.652733561035029219e-03
4.114817362082007213e-02
2.508171963331570428e-02
5.511484860284307508e-02
7.188304269482749531e-02
7.918491919288879466e-02
7.943598040724986209e-02
9.308696094267103482e-02
1.067443827260861067e-01
1.075727748545178830e-01
9.169463715153225447e-02
5.659834011699083761e-02
4.903162173248898359e-02
3.628807402407512733e-02
1.957556381797930303e-02
1.251138996874234799e-02
-1.568685938332228759e-03
1.388578610943739904e-02
2.819067008992362164e-03
-7.809938881501736398e-04
7.457577546116672673e-03
-1.009190242525323696e-02
8.379997256516056800e-03
3.956227665740073840e-03
1.251590759337676759e-02
1.616789499602210856e-01
3.148241442121526568e-01
4.597876790256510415e-01
6.623559247216792567e-01
8.616324284623189111e-01
9.694057168373335642e-01
9.955980954859100507e-01
9.210111130129390311e-01
7.358846321406851132e-01
5.405737909231824734e-01
3.487186983937748397e-01
2.038019403710929767e-01
1.217805984402240416e-01
-1.051679734300129364e-02
-7.712054267073886749e-03
4.936454840877822943e-03
9.850421986922300310e-02
9.804140773348324345e-02
1.310339797003726159e-01
1.744774382777957988e-01
1.841503489052875864e-01
2.011268676585895587e-01
2.249687780725951325e-01
2.412541559587052242e-01
2.569618146055246966e-01
2.778973092732788808e-01
2.949926536178790193e-01
2.952772845576973615e-01
3.027532346925201900e-01
2.871073822662358888e-01
2.890757300014214493e-01
2.858834253361323685e-01
2.649154150106976524e-01
2.374304042636924128e-01
2.185772387814220730e-01
2.283222750502832410e-01
1.925195459220281347e-01
1.580841566010575128e-01
1.264451301706416564e-01
1.234609884479021813e-01
1.169129876681106461e-01
-8.286782119379883932e-03
8.160351062529389368e-03
3.535220943983651172e-03
2.254529662757135192e-02
1.250590591743712225e-02
1.567552101716012400e-03
4.454726663068421348e-03
-9.624736547764415479e-04
-2.532877249732662286e-03
9.155098375589672830e-04
2.714871356243165387e-03
-5.431504839645990082e-03
2.354109151132283834e-03
-1.088001484303014312e-05
-7.158940718481980863e-04
1.181307242061064959e-02
3.861802771597280760e-04
-6.688694797759272886e-05
4.328222093434567000e-03
1.288205669125402908e-02
3.713398088345195441e-03
-1.713122399693941394e-02
-2.533802805191871007e-03
3.125730043226486368e-03
2.661016034484149900e-03
-2.377653071841522448e-04
-4.257950764456236090e-03
-8.985305862016885678e-03
-4.831582563444060678e-04
-3.561293401485509866e-03
2.025352286580531290e-04
-1.477180733080892894e-03
7.434971330308946282e-03
8.140350098250117433e-03
9.724264608396138848e-03
7.535497116068272556e-03
9.815577448759752258e-03
-5.883015556593725222e-03
1.614310920548092665e-02
4.204521052225682239e-03
-5.690266489004717175e-03
4.205860606700989428e-03
-5.382551864881489519e-03
-5.907684274598535602e-03
6.767732624186765036e-04
-1.549017453996854449e-02
-1.560369972023216076e-02
-3.030005105614083129e-03
-3.926757106078675695e-03
1.114823950414110636e-02
4.111483713199710205e-03
-8.341142269809790136e-03
1.673718396121704616e-02
2.048045795963150673e-02
-1.544401180022546109e-02
1.334147908146201189e-03
3.721185799548238065e-03
3.686628226198219831e-03
1.120225226043707750e-02
-5.877933417841239155e-03
-2.279751174027025429e-02
-1.473661717919138659e-03
-1.293686840550944267e-02
4.044467338801816837e-03
3.021205921676016221e-03
5.635902471776018351e-03
-1.385313059386379664e-02
-2.356057478258080217e-03
6.192490942155979249e-03
2.866721763473795148e-02
-6.381868493482002400e-03
-3.638212789230031632e-03
2.375121318328792148e-03
1.646329538474029103e-02
-3.313026306346397200e-03
-1.228810750672780158e-02
7.618521392542522419e-03
-7.305591481337394590e-03
4.636918870139510214e-03
1.060557719442592256e-03
-1.250129963649635725e-04
-3.934515729814174780e-03
1.156136792130654572e-03
3.517335772799895597e-04
1.058429157478747717e-02
-6.261690707057553443e-03
-1.804833560072529805e-02
-4.635397748830989706e-03
5.034229140358796942e-03
-7.266770531046269112e-03
2.596283049117831775e-03
-2.224565818554212482e-02
4.225369120194930050e-03
-1.393467830536639779e-02
1.328279425967950414e-02
-1.774429178063922224e-02
3.041997203527763930e-03
-2.594583358377705682e-03
-1.117516731490993294e-02
4.633628989307010324e-03
1.831535003971751507e-02
2.944957454472570818e-02
3.862185282475853049e-02
3.385762968081493240e-02
5.492910804035567446e-02
7.472302787362658516e-02
8.555564667173788662e-02
8.843877436424461835e-02
8.919557667325596351e-02
9.510354073626260674e-02
7.291945119091242100e-02
8.248637132517565307e-02
6.062515424464801073e-02
4.865476543927001185e-02
3.871790665088051947e-02
3.350278048601772196e-02
2.011728223681355163e-02
-4.977337303162714631e-03
-1.784537381556058552e-02
-2.523879356122408612e-03
8.919899468520137847e-03
-2.294628029347747442e-02
6.886941590038725717e-04
7.312967057405026991e-03
5.742883446859813751e-03
1.198784113316881672e-01
2.187363384800358745e-01
3.488399416635310502e-01
5.396523870386087385e-01
7.314933962088335795e-01
8.935364633054376782e-01
9.847800105243090796e-01
9.745514150755872906e-01
8.613815083215068391e-01
6.612693729289216282e-01
4.688634621660275337e-01
2.915035236601475344e-01
1.678896724628158865e-01
8.641043006524046438e-04
-2.388560720548081780e-03
4.079225718176511008e-03
-2.486308420335936811e-02
9.361713775435105689e-02
1.244975669138672358e-01
1.291319210949536112e-01
1.589999423870713247e-01
1.711099268536706852e-01
2.041849678490614550e-01
2.310292827866939069e-01
2.378662570930519249e-01
2.646436851251940947e-01
2.665742620058269563e-01
3.001324116249452501e-01
2.921678054192423657e-01
2.914493250810873959e-01
2.916175117648665549e-01
2.817870316585975310e-01
2.650587655406653198e-01
2.627814687570074748e-01
2.373357039975834137e-01
2.267491976540275123e-01
1.928207480503066340e-01
1.758763902963542680e-01
1.720056664200053376e-01
1.644881430983646808e-01
1.078197430054094602e-01
8.955245678437523393e-02
-6.067714138800825094e-03
-1.819504039783910454e-02
-1.236742566950153888e-02
3.497216059282918458e-03
8.773289543973694302e-03
3.147627701916263458e-03
-1.149091806864308181e-02
3.262199223883801603e-03
-3.952797467454824062e-03
1.415257953122272920e-02
3.620394245778074845e-03
-7.507371395584687933e-03
-9.761145764445268089e-03
-8.152321262727770662e-03
-4.034351725033271524e-03
-2.533330743499034778e-03
1.351488630106008684e-03
-1.719071717162217947e-02
1.193584771635038469e-02
8.808818997717958107e-03
9.062308309601032133e-03
1.339208295810483465e-03
3.515700181339017120e-04
-1.404506054657172869e-02
-8.709366204509830581e-03
-1.495453288015634319e-02
-4.824212156409502135e-03
5.250788902841276723e-03
-5.269172386335470477e-03
2.725699858799412491e-03
-1.124077097018143928e-02
6.265063865061862823e-03
-7.599727956192394926e-03
-7.273667859931688510e-03
-1.032519242888862293e-02
1.190939200790367726e-02
4.135744521773486622e-03
-5.935748309282736813e-03
-5.962675886364467029e-04
1.260531041698085761e-02
1.345202662931125942e-04
1.140266226605228419e-04
-2.004012762243767912e-02
6.418156608685970932e-03
-6.507393198983395938e-03
-1.807645922153354196e-03
8.200200826710067961e-03
2.854015604527876653e-03
-3.451398286779129576e-03
-6.385999992807221692e-03
8.327991653901638648e-04
1.097124651201249884e-02
7.212314500639763204e-03
-2.512156767020181508e-03
-2.552047328624545974e-02
3.152168790091321908e-04
-1.842581800080635504e-02
4.671919959043286698e-03
-7.002152178045996551e-03
1.803673448302565985e-02
-4.902036074316698869e-03
1.333883246890222619e-02
2.147800484294008164e-03
-1.464917337186129103e-03
6.864005956346963706e-03
-1.010200904094222174e-03
2.492508699679800693e-03
4.484247386114175588e-03
-4.558249342097905020e-03
1.839787620697505566e-02
3.411885256767083641e-03
-3.152882624983559777e-03
-7.901397356034910863e-03
-1.149139469692349314e-02
-8.706470391022009050e-03
-2.005969275155695952e-02
-2.906160693759358201e-03
3.988377488506419759e-03
-1.388863506752830400e-02
5.151803578917694536e-04
-6.520912444146063913e-03
3.030587557880852143e-03
1.160411173449158763e-02
8.649062335814790585e-04
-2.918858842342033234e-03
-6.070134456141501773e-03
-1.330302574064001937e-02
8.660994649417398314e-03
-4.245819993946030367e-04
-1.760411189980794905e-02
-2.108230828605981572e-03
4.477504258584762316e-03
-5.090359678911484352e-04
2.039673850318414298e-03
4.875936570236246229e-03
-4.098348853274025143e-03
-7.702059130075773752e-03
1.830479677830375296e-02
-9.109760188996333941e-03
-1.093590686153060121e-03
9.583978885405235182e-03
2.327181401343370384e-02
3.443876617284518521e-02
4.184588692853791897e-02
5.698112241677438100e-02
6.570785373538930163e-02
9.800841924550357520e-02
9.079318158227364655e-02
8.531559102007010842e-02
9.144538659300895100e-02
1.089711659825658152e-01
7.124908304289462313e-02
6.542819069809691079e-02
5.317074074863371164e-02
3.524429307480712176e-02
2.028482677460040004e-02
9.409096101704202825e-03
1.682290845744312952e-02
-1.799141194936907523e-02
2.896920147501775428e-03
-5.687499708685839553e-03
-1.254457863843122176e-02
-5.441646872600114197e-03
-1.044012074190613093e-02
-9.157308648508583060e-03
1.412275827737753675e-01
2.403648205817301986e-01
4.089207193797042006e-01
6.087984688505478914e-01
7.991188410583724977e-01
9.507821189049147081e-01
1.004391201846830617e+00
9.487165171520731688e-01
8.195330313192876748e-01
6.055094095592113979e-01
3.995295035905890857e-01
2.693255671919211336e-01
1.397196929882316974e-01
-1.353200106939805684e-02
9.021304446834178120e-03
-5.565387085241917456e-03
5.615224429876551279e-03
1.104059491505940682e-01
1.220411130032609398e-01
1.647189824359317489e-01
1.662051950409475232e-01
2.001183150012183498e-01
2.262947236434078302e-01
2.552671057299159552e-01
2.703240154975619092e-01
2.879031555099610395e-01
2.799120064087712301e-01
2.792246426332237741e-01
2.979174561507347829e-01
2.951164618763374436e-01
3.020089441857027879e-01
2.822594084711946838e-01
2.833936136737098543e-01
2.482725658085212506e-01
2.321000570589858703e-01
2.259372665789624035e-01
1.922964794349491247e-01
1.766914661693891053e-01
1.419518781919471007e-01
1.283181906839681863e-01
1.115812444043932095e-01
8.172270082548238612e-02
-1.275702741531265470e-02
-3.407916568931561568e-03
5.548577322045538524e-03
1.517444913094777650e-02
-6.452836581790624346e-03
-1.050409163131679063e-02
-4.336513590724985594e-03
1.410374434524114869e-03
1.301727269831302013e-02
1.066840709220964571e-02
3.555942550916558337e-03
6.058913899183505404e-03
-1.801305664949469788e-04
1.518374104580353886e-04
2.572093990040099070e-03
1.179542710461041650e-02
-3.374532367473821737e-03
-2.027533754260005261e-02
1.859483449753838308e-02
6.874841163137301652e-05
3.019108378954248788e-04
1.045563895259535130e-03
-9.594157001673221316e-03
1.146883631624702471e-02
-5.465857730692793778e-03
-6.189107210561455540e-03
-1.870126979953284051e-03
-5.650279057659530167e-03
-3.227517157607622325e-03
5.320349807662398374e-04
-7.593393804237762688e-03
-6.466050546115423812e-03
2.638093147538669424e-03
7.226695388017326596e-03
7.397420814822539339e-03
-6.786466957015757986e-03
-7.153723193624572825e-03
-2.317539524284329203e-02
-4.427547788308366927e-04
-3.935303221431733106e-04
-5.873173829074346264e-03
-1.502233932112510655e-02
3.428977392739575823e-03
-6.891590100991789973e-03
2.350808508499260818e-02
2.065561955510079178e-02
-1.003988191501305541e-02
-8.515694673722281824e-03
-1.613622097160843580e-02
-1.911695332821760100e-03
1.579207521851044155e-02
-2.457250934975499859e-02
1.082926481325444633e-02
-7.336189393244301610e-03
-6.668326290347948403e-03
1.535794851679772111e-03
-1.915494056582381149e-03
-2.905600170388678797e-03
-5.136425126757866375e-03
-2.951932619760288222e-03
-5.183441874258768248e-03
3.826743598410399863e-03
-1.013698905233925002e-02
-7.147477402237676497e-03
-1.782686940658742211e-02
-7.151544222643817575e-03
-5.353851453988625955e-03
-1.788122085293339034e-02
1.069824320084491499e-03
-4.001575315882936398e-03
-7.580610690422762143e-03
3.624018790463691148e-03
1.009470338363381223e-02
-2.143056711225051550e-02
2.166504236104312402e-03
1.217605411788796714e-02
-1.663746681659054871e-02
-5.299871112183563056e-03
7.171238836550292498e-03
5.713647438266287494e-03
-4.250903203769939610e-03
2.047471841049926678e-03
-3.810196845627524236e-03
1.053493699509902050e-02
1.662677414390999198e-02
-5.883151636058283826e-03
6.078369485629426562e-03
-8.567387844093592858e-03
1.415775692287276656e-02
-5.231133228909267199e-03
-3.623974334003209497e-03
6.106727464788228900e-03
-1.344966055026849266e-02
1.187612352711696004e-02
-7.626599857781768107e-04
1.174798940536099859e-03
2.965241827834714378e-03
-2.874071366030394106e-03
-2.773393843601441172e-03
1.423878206634616485e-03
2.649485290815589700e-02
1.927629130885143843e-02
4.612716290311335426e-02
5.869698017917999999e-02
7.317147324474390646e-02
8.786004276796779977e-02
1.089663246239165051e-01
9.668607088555264406e-02
8.735793142578411608e-02
9.135349887572270788e-02
6.355012315853092453e-02
6.475582054694520306e-02
4.933816504255505303e-02
3.887150600457063565e-02
1.906943701509352176e-02
1.761126617349625945e-02
-2.513538106281721328e-03
2.538536329015848077e-03
-4.266630921188085436e-03
-3.581386142729929209e-03
4.263027483175254977e-03
-8.382854280478190066e-04
1.134271894115046605e-03
-6.413404651804542785e-03
8.550187386316026802e-03
1.685849035298248033e-01
2.785131665475625851e-01
4.888674172753536551e-01
6.777161527225942228e-01
8.577287204914759711e-01
9.988832700677287013e-01
9.987784147671321389e-01
9.143050402323561476e-01
7.447028502533643568e-01
5.290331115646488280e-01
3.412593877462300473e-01
2.115269159483411932e-01
1.201832112894034160e-01
1.577879514192270100e-02
9.129939632285014278e-05
-1.930535014286284198e-02
7.462998372405582614e-02
1.072324101271058538e-01
1.355672750946147198e-01
1.715323487002436142e-01
1.934713117583921338e-01
2.157790717181782836e-01
2.078584386961492003e-01
2.327689295139504511e-01
2.565302202222709549e-01
2.822589808870866190e-01
2.650749098682005922e-01
2.914007732787338156e-01
3.193245699756477873e-01
3.057364273907147711e-01
2.994383406480612964e-01
2.919980920191933560e-01
2.737110877976896561e-01
2.494402568207901849e-01
