2.337909495734587055e-03
-8.054868106733033273e-02
4.738184465199757334e-02
1.433097814608531584e-01
3.044961890153296408e-02
9.818945391216245266e-02
1.558070030108029691e-01
1.136289343225593551e-01
6.625918229176508412e-02
8.770075478648664546e-02
1.170928157375560885e-01
9.743430370430181120e-02
7.925124340419348323e-02
3.539591742677627995e-02
7.597044116006451686e-02
-1.167062393753929422e-02
7.448289680414157954e-02
-9.034935923208242681e-02
-1.262124945252252328e-01
-1.738078467050077625e-01
-1.489967459902782898e-01
-1.389449997139781123e-01
-1.201269368396855886e-01
-1.365847450241361449e-01
-1.335733167044754199e-01
-3.185591802052542554e-02
5.198448853617981813e-02
-7.403923202184632679e-02
-2.172204410407685762e-02
-1.919916817192224637e-02
3.392177213908490613e-02
-1.854604513542568167e-02
1.067259291497758139e-01
-3.201828419233138101e-02
4.590677544570881397e-02
-5.614789263347098706e-03
-2.441563023222007717e-02
-3.636512054412599504e-02
1.921195440647687977e-02
-5.985214249623297539e-02
9.493387145778416081e-03
-6.678470951868185901e-02
-3.605169238209695454e-02
-3.884987578807604092e-02
-9.483029548003813793e-04
4.115513555341912544e-02
2.929134262480820317e-02
-2.061084059004598956e-02
5.743624218359284772e-02
-7.013380746850102210e-02
-6.816098991530669671e-03
-5.327552399847246267e-02
1.041665098057237837e-01
5.235213829110118428e-02
-2.862035140570219974e-02
-6.629848992458918511e-02
-3.688408465886152537e-02
-1.375851404697720284e-02
6.735618821009572432e-01
6.935423519580501406e-01
6.707501303327544351e-01
8.230726787111489751e-01
1.008059180416093659e+00
1.000721122301156729e+00
1.119505293145257152e+00
1.244928977255743474e+00
1.244795543720885078e+00
1.336082593882885527e+00
1.446080513228275022e+00
1.474532317271840087e+00
1.514242727998767357e+00
1.439865970756852187e+00
1.502943744720067976e+00
1.447883399800183435e+00
1.527385645914862256e+00
1.386763801458585688e+00
1.391811220663333293e+00
1.280370181178401845e+00
1.185631399116740203e+00
1.128878307097615386e+00
1.044508156375126173e+00
9.110155912595006011e-01
7.295284500659537930e-01
8.181857866416382130e-01
6.656251776505381912e-01
6.173155143244634102e-01
5.113176261589072978e-03
9.807591155280689921e-02
1.449420891119251875e-01
1.281869753583015914e-01
4.843272495278090617e-02
2.471463199620241857e-01
1.224491874095445104e-01
2.504375310646884678e-01
1.738407678361026942e-01
3.130865314704178726e-01
2.185455406247373555e-01
2.765559342336498250e-01
3.839171541515591923e-01
2.288830247418089936e-01
2.899770370253025864e-01
3.037874189769940170e-01
2.996153519118211483e-01
2.797020347032376231e-01
2.371101719635739791e-01
2.340786956148900311e-01
2.287052982841937532e-01
2.607256487437623615e-01
1.910009232526898582e-01
1.608702177897028962e-01
1.933380736012490497e-01
1.173205936672745975e-01
8.688797355313017390e-02
1.134063756225001107e-01
-8.444262661170678919e-02
-1.148360320790096228e-02
-1.076016700021105721e-01
-3.435240905882150364e-02
-1.570900811647608919e-01
-1.750730594464386114e-01
-2.221190119070146352e-01
-2.162090920741284172e-01
-2.227355177501226802e-01
-2.352114291734660467e-01
-3.213612183423152358e-01
-3.174611822997118749e-01
-2.829187523176253105e-01
-3.795419249090976055e-01
-3.299529519370022479e-01
-1.983551585739403711e-01
-2.401350116749236818e-01
-4.226761614086914642e-01
-3.445166198767333765e-01
-2.426757769334542680e-01
-1.815394373825834351e-01
-2.590909751571611741e-01
-2.082964326959848567e-01
-2.018444522074970826e-01
-2.110591604246420672e-01
-1.506653118731097474e-01
-8.665721726545824732e-03
1.449139778845405513e-02
5.022616485979295581e-03
4.831618263152542836e-02
-7.419505861737930863e-02
2.312466720505915521e-02
3.225533912165249456e-02
7.376531943578244765e-02
-6.533605468739898080e-03
-1.882633157137283964e-02
9.622233397327395465e-02
-2.252080549290302533e-02
-5.024846756708600121e-02
6.416364532986947034e-02
-1.543306379843985277e-02
-6.438439714166277472e-02
3.275432316289855761e-02
5.988208339752446041e-02
-1.317022523692675841e-02
9.063612114445269985e-02
-1.166973836583002494e-02
-7.668619636450925425e-02
-3.507729099263917627e-02
3.666086646028446361e-02
6.592061814864051683e-02
-6.342039847783057134e-03
4.512219482084382782e-02
-3.228909682585741348e-02
-5.786614464342258041e-03
6.331853136549311922e-02
1.712615469590245609e-03
4.344763139720755549e-03
2.165127020890664569e-02
-2.861467028729123424e-02
-4.250387947893335960e-02
1.276785365146950249e-02
-8.581229128056543781e-03
-4.212700064242389658e-02
7.902870078585794156e-02
3.066953402355378569e-02
3.935775433706272669e-02
9.961132187688848116e-02
-2.025643731065801534e-02
-3.325208599715306912e-02
2.752897353725956842e-02
-6.765801375829962050e-02
-9.099228918584627637e-03
1.021826015357414352e-01
-5.585527533740005171e-03
-9.580671279458885525e-02
2.875194072200631598e-02
-6.504766945114563714e-02
7.071432623307548349e-02
-6.489842708043090658e-02
-6.703482139850773514e-02
9.101665600929283867e-03
-2.885390127139988645e-02
5.371078519464759365e-02
-4.636288525611145794e-02
8.301831875334474142e-02
-4.175924852163060558e-02
-8.861069949967285975e-02
-7.592829163769224468e-03
-7.547780329275743938e-02
3.257213935947824140e-03
-2.817552285207033935e-02
1.029320357901460092e-02
-2.052128372097490605e-02
-3.244641413094902921e-02
-3.974488348408046316e-03
1.344542670701942772e-03
1.070028502716126317e-02
-4.371908129750490951e-02
4.639908467418302727e-03
-1.738119872190315579e-02
2.027726641666845880e-02
-9.567862121527739155e-03
9.351368730245791447e-03
-1.198702259151747385e-01
-1.062759195307310355e-02
1.044384482859526606e-02
1.573271402416753437e-02
3.456915708901740075e-02
-6.262172815044803054e-02
-1.825417081415203540e-03
-9.859104727533497814e-02
9.224969259574201941e-02
-3.660458701930931896e-02
-3.535347438016724769e-02
2.253698097981616730e-02
1.675038325006425119e-02
5.762483029428507042e-02
-2.402516863505963288e-03
-6.878642622206170010e-02
-1.931561285108771009e-02
6.433659887033178759e-02
-9.032089052541789065e-02
-8.095780101233306103e-02
8.585235359548687439e-02
-5.554548850465351045e-02
4.728734644618623473e-02
2.036189602307393251e-02
3.516367230447390441e-02
-1.125869430833180140e-01
1.676706901437677788e-03
5.977735529535133270e-03
1.705203881609584568e-02
-3.171727667202932713e-03
-8.031941671799024129e-02
1.036707601656517786e-03
2.362097246816759373e-03
4.138882370070234851e-02
7.461907171509327835e-03
1.853236428754376913e-02
-1.052878816691520392e-01
-6.963025378550047328e-02
2.139155398425819643e-02
-3.549396259981667939e-02
-6.866863573629836516e-04
4.848008063550679481e-02
8.787373280043681012e-02
3.245103489532977226e-02
-7.770547653234755048e-02
1.100740661492596167e-01
-1.503242778838985438e-01
1.019596603161359270e-02
3.803788010653575552e-02
2.993404861706662479e-02
5.255050189490147183e-02
4.324526638169348680e-02
-4.566793844754028081e-02
-2.044399167010461232e-02
-9.988494038688433552e-02
-9.444668666156478751e-03
6.588753027732163758e-02
4.013518392691373116e-02
7.718621108186375646e-02
5.018083981529317811e-02
8.075778456910709391e-03
-4.861129848493199457e-02
-3.416592357308402550e-02
-4.554630296363326725e-02
-1.043549557626190054e-02
-2.289300547127749372e-02
1.074866602756485989e-01
3.673004472314668478e-02
9.780857740899000230e-02
4.625842288809058067e-02
4.633202472638014296e-02
1.783347751035970763e-01
2.776338328289593149e-02
7.778850708412507475e-02
1.956694535520861200e-01
7.874041576995799430e-02
-2.831440618102104567e-02
1.434654643745765235e-01
4.489602240492626684e-02
1.292663878128742783e-01
-4.580295259543035874e-02
9.952592570700187491e-02
-2.189078180586106689e-02
-1.110051910296954401e-02
-3.096333820720694602e-02
-4.944155956813084396e-02
-3.585679359639597913e-02
-3.450120263669857745e-02
-1.337193418554072089e-01
-1.370127266540141775e-01
-6.098918891750502308e-02
-2.072575470820369192e-01
-2.763848823899651280e-02
-3.539881713679027264e-03
-3.565012348356214056e-02
-8.281110024114654578e-02
4.700127359328048343e-02
-1.638289061756623491e-02
-1.305365594408931240e-01
-1.292601595522549322e-02
1.765538873874988868e-02
3.840773501834895964e-02
-8.916942120692990248e-02
-3.786160692311194009e-02
5.659086499971616863e-03
8.785849539874693651e-03
1.943027692065845899e-02
5.981469005030999597e-03
-1.379329194889212552e-02
-8.545942005834290464e-03
1.928604581449740174e-02
5.457076073393499205e-02
-4.573431799730379860e-02
-2.937121541886959092e-02
-6.137534899378296882e-02
1.025078912087353800e-01
4.490874403034124385e-02
5.292970256689115416e-03
-5.381591628813815753e-02
1.710253705130108590e-02
-5.703253748109363142e-02
8.597072474708476741e-02
3.091063501528688601e-03
4.147232394129789224e-02
6.631346692786642405e-02
5.233492362372408335e-01
6.700468640399270814e-01
6.813497873547889050e-01
7.905321682876736977e-01
8.369914432676450744e-01
1.006808321404763840e+00
1.177952632152814205e+00
1.276796266623107634e+00
1.212625506978030732e+00
1.387551404257053811e+00
1.381282870725113687e+00
1.391268984866196101e+00
1.515844921127138978e+00
1.477905380860967455e+00
1.585220889878300676e+00
1.456530862485964306e+00
1.464043635177862956e+00
1.425467263650062488e+00
1.394576840610435298e+00
1.289767965878005684e+00
1.234640847295270127e+00
1.215413682478130086e+00
1.120815708866123250e+00
1.008085127782225143e+00
9.044424504422453603e-01
8.425952411669480613e-01
7.651549730477861244e-01
7.151248960164185986e-01
5.659172476216753900e-01
2.298403159054333844e-02
-6.199334154837615740e-05
1.847874750174474112e-01
8.904539606084216352e-02
1.690655590485246051e-01
1.801710855791723020e-01
2.471195762477104707e-01
2.325580201257671509e-01
2.174772030138192591e-01
1.619012444625861358e-01
2.482429689514447924e-01
2.649886242865729935e-01
2.273084356759969560e-01
2.871588493642605600e-01
2.775918215740131867e-01
3.676675322299070015e-01
2.979568529732630755e-01
3.064179309982318911e-01
1.989398945454897150e-01
2.683159622113127640e-01
1.978787352289335943e-01
1.913093486514238495e-01
1.211246161917376718e-01
1.333454969644786159e-01
8.039848960680331946e-02
1.062315831039658681e-01
8.374853332027235031e-02
3.981223755276404319e-02
3.688668348323457732e-03
-4.023279618757587273e-02
-1.179870067255741339e-01
-8.405311644329438447e-02
-1.152786021090567575e-01
-1.961676388888724532e-01
-1.488568469332420263e-01
-1.505016287543784193e-01
-3.082157883201493420e-01
-3.231613144974000984e-01
-3.019913748019275035e-01
-2.843266812404482979e-01
-2.927040688698160364e-01
-1.574456321043463947e-01
-3.045439349343690427e-01
-2.451315095310764858e-01
-3.048644287547202514e-01
-2.719628223060897576e-01
-3.081344347802230654e-01
-2.770737087203231086e-01
-1.449693059207439183e-01
-2.054365217526216147e-01
-2.443833334124849710e-01
-1.334531625871009652e-01
-7.197587691630090434e-02
-2.027501177027589141e-01
-1.528097671254557421e-01
-3.607098162993299661e-02
-8.223416204824503251e-02
1.855989804428461940e-02
2.766338286915226083e-02
4.757668539422762154e-03
-5.722652238914800737e-02
9.090734733987507199e-02
-1.042791615885166681e-02
2.129980161964158472e-02
7.889451802541820602e-02
-6.007708529993855719e-03
1.408994618442440706e-02
4.930566847624168192e-02
1.903624713503596511e-03
-4.508772957238656696e-03
8.494326969156919260e-02
-3.370009685925112047e-02
-2.976757517837660960e-02
3.429911906777615566e-02
-8.994281892174321724e-02
-3.187378379955902591e-02
2.266139225219163805e-02
-2.993523757510368685e-02
6.101638502636740763e-03
-3.520158989976124309e-03
2.697762098993706364e-02
-3.487756127232310988e-02
1.664854228751735596e-02
4.767198120557905594e-02
5.392109176025309397e-02
7.589907226069701751e-02
3.765270265189582521e-02
2.583222508748939800e-02
3.073017945433841394e-02
-3.798426888849616712e-02
4.574357896272168711e-02
4.323203712004255322e-02
-1.863184681478169055e-02
4.391973837152534504e-02
-8.263998669349595372e-02
-5.137354214091669619e-02
-1.865557076492289565e-02
-5.267952877159259861e-02
6.690194046542275244e-03
-2.988682205674561554e-02
-1.345533461091220906e-02
1.379954058210474191e-02
9.241256527971825063e-02
7.363142407415018686e-02
4.204551064119793624e-02
3.378693977977285413e-03
-7.157376578885313312e-02
-1.256092282214730550e-02
-7.303424653183802906e-02
-3.612856198597375317e-03
-4.761794264357609857e-02
2.267795654743567230e-02
8.892406629096007153e-02
1.245497423954532211e-03
1.460694906334215372e-02
-2.906739212584425608e-02
2.751344001381397786e-02
-1.604830538651689370e-02
2.484621448560463131e-02
-2.498769218570438128e-02
-5.996797106263396238e-02
6.625592523004407430e-02
-1.118067975590376862e-03
-5.863939904089576077e-02
-4.834798853029512004e-03
-4.381488277358072669e-02
9.544829602968635252e-02
1.280565802586797752e-01
2.309715372773004510e-02
-4.379401639642705596e-02
-5.987470869979201471e-02
1.400526622163896645e-02
-1.902831781855177443e-02
-3.696661826354610998e-03
1.298565397934232646e-01
-5.311189634447059139e-03
1.166544746792036041e-01
2.908955860203185292e-02
-4.387072998341461777e-02
-3.832321102969402093e-02
4.201906469854985865e-02
-2.592980728885726713e-02
-1.350182320360047462e-02
3.218062741028663437e-02
-2.165043796395601378e-02
2.799381245483618247e-02
2.815316062136185519e-03
2.622196436987411436e-02
-3.013635111262898125e-02
3.320698512183665324e-02
1.017403813164372423e-01
8.185664411342656599e-02
7.619016355021951403e-02
-8.361339875460552240e-02
2.709125527868774808e-02
1.551285342573201567e-02
-9.482614471693878722e-02
6.782759586106461291e-02
5.975316435907256779e-02
4.450701401569019666e-02
-3.807425459127512096e-02
4.133899224223888495e-03
-1.078551605405919309e-02
-8.378778630572153441e-02
6.278936587061249158e-03
-7.142686384124571908e-02
2.356277399370032208e-02
1.978941349638329780e-02
-3.616661478618195952e-02
-2.810036302058409666e-03
-1.300409476877855547e-03
-6.701189414123458199e-02
1.939488671231789614e-03
-2.842354592728776885e-02
7.696259859057796859e-02
4.588767881875219917e-02
-5.656447134552540501e-02
-8.817656605516510648e-02
9.284186090883626841e-03
8.145851790994307340e-02
-4.906205170397131415e-02
1.167765009255934683e-01
-3.925739261249829200e-03
-7.012508015901509906e-02
6.365144857239862786e-02
4.347400610641084101e-02
-4.826160074242654904e-03
6.563169461574067109e-02
4.445519941167097588e-02
3.785520688609917556e-02
9.150578428537885223e-03
3.794239128467163935e-02
-6.016968770803280547e-02
-5.815231102535563246e-02
4.695015021574711067e-03
2.134946257506746548e-02
3.132789501194663435e-03
1.893738216096564619e-02
2.457314005695955886e-02
-2.002666120366125221e-02
2.716969773015908557e-02
3.267131295598080243e-02
2.337390340230985353e-02
5.201532506320377669e-02
1.108510217224164124e-01
7.312263081902851958e-02
1.902427486456155781e-01
1.425145767899636540e-01
1.075515815083407378e-01
3.257484267838178099e-02
9.697300433896288707e-02
6.582716151289420836e-02
9.440192045449563585e-02
-5.159254429303216510e-02
2.780304137195645578e-02
-5.656564834147925075e-02
1.344925485552187633e-02
-1.302850060688430234e-01
-1.428260398265308595e-01
-8.950655851921500428e-02
-1.780929233459378758e-02
-8.981368182514803955e-02
-7.091594141154451691e-02
-4.377625557032888137e-02
-3.582458549545488452e-02
-1.205181900961941194e-01
-7.619285865222792664e-03
2.240481101521032276e-02
1.708596876917884907e-02
-1.697446383797263092e-02
1.462911004626014748e-02
6.600974948267362974e-02
7.226246631233090856e-02
-2.595105421461049722e-02
3.432825603917982055e-02
-4.671077916826583964e-02
6.853596625388796298e-03
1.285738712499068237e-02
-1.103658622404909799e-02
-4.112308036410153300e-02
-2.088706301893996850e-03
-4.942983710569639338e-02
-2.546066362255496908e-03
1.794497889423542561e-02
4.207889048822227585e-02
-3.444623129289142716e-02
-4.600456098832403362e-02
8.094455709555348905e-03
1.611565781672498199e-01
1.186696344630442171e-02
-4.470506432311964831e-03
3.855944417055724022e-02
3.024041203444057489e-03
-4.355849420694661578e-02
-3.906035500335055394e-02
-3.341424252713435638e-03
3.629382630366943807e-02
4.920432318219478685e-01
6.582651139440851562e-01
6.533541523871008172e-01
8.312555665124843340e-01
8.849547891978301051e-01
1.028039849544273077e+00
1.071162837692490655e+00
1.171255897336151319e+00
1.275568388658007146e+00
1.396058355870476220e+00
1.443357413522509125e+00
1.459603560388488708e+00
1.480474856330864508e+00
1.498823797656152257e+00
1.402433839614355193e+00
1.482516823314368404e+00
1.504843193015312552e+00
1.395683984148490264e+00
1.391965411194619362e+00
1.329379631406313766e+00
1.173301543530809399e+00
1.240690469857991918e+00
1.075545693674997638e+00
9.192440151179761543e-01
8.564172212812257712e-01
7.745398058909973571e-01
7.399551479313341007e-01
6.118620488578898620e-01
5.779824562018234246e-01
7.478934394627075044e-02
1.470421872813252873e-01
1.364680021153215073e-01
1.719738537251727928e-01
1.591068105859780868e-01
2.304674483236779647e-01
3.089919567642964160e-01
2.223183666380642853e-01
2.544703180361810868e-01
2.818684762036781644e-01
3.212818775014968931e-01
2.585000697151065285e-01
3.089341939435411577e-01
2.930919258258491422e-01
2.671124871821502489e-01
3.486710866869515701e-01
2.957369203610654140e-01
2.865836332046960422e-01
2.168726138142971493e-01
2.584346084208317684e-01
1.707058992802708008e-01
2.038995447721107523e-01
2.074102649331949211e-01
1.088211660258589231e-01
7.798290308094928125e-02
1.522256278778798544e-01
-1.123084933846237726e-02
1.789973154118602860e-02
-1.250613667540790286e-01
-9.055960017404687812e-02
-1.395715088129760861e-01
-4.576940394588396160e-02
-1.362640454461576944e-01
-1.917491567943821473e-01
-2.018047292751359856e-01
-1.910200688909907962e-01
-2.503854862648536850e-01
-2.467942795783940602e-01
-2.722237180686583047e-01
-2.421605008680332571e-01
-3.340889829098809272e-01
-3.792330535523332768e-01
-2.698833482687719720e-01
-3.154053963526325943e-01
-4.008966569300054794e-01
-3.587926911745663028e-01
-3.161532361557143345e-01
-2.062409152084155872e-01
-2.539052115565630929e-01
-2.937722644339640921e-01
-1.300342235017558912e-01
-1.874270739241712946e-01
-1.002327496287554326e-01
-7.244446035622956193e-02
-1.853079275677384230e-02
-3.422491772311485325e-03
-3.993149475000780380e-02
-4.432591886835113987e-02
-7.009773143498600201e-02
-5.146794621153693433e-02
-1.141021004213583767e-01
-6.475042671108090231e-02
1.127490494101501123e-02
8.614184526773216444e-02
9.279443263191596014e-02
-5.354176669900429821e-03
7.492049706322726627e-03
4.714722114590295943e-02
-2.741353410653396203e-02
9.546073321435512727e-04
1.793449528184986805e-02
-1.832377322936838129e-03
4.114385206062163430e-02
1.193071848941323204e-02
1.830981036654660832e-02
5.594598928799078552e-02
-7.172976336843119027e-02
-7.403753467318386142e-03
-2.519856371380734331e-02
-2.918088060639431255e-02
-3.763600038906718404e-02
7.862587996687582514e-02
-6.978023451423764900e-02
-9.205736973328139394e-03
4.546503226025977451e-02
-4.727991905889622481e-02
-2.880643026232975260e-02
1.946862877178434301e-02
3.368348696512958162e-03
-2.453769194890859096e-02
5.396936570824566876e-02
-1.006519541919027871e-02
5.532739937014354015e-02
-7.625613779782935975e-02
-1.412439397433219550e-02
-3.062709434129898267e-02
-4.218760474549600181e-02
1.793863472267092155e-02
-6.814590440805264049e-02
-6.255168666876580186e-03
5.007084749628366860e-02
-1.001297227957556046e-01
1.450325114435892793e-01
1.682881532309295908e-02
4.435724025806900284e-02
-5.846789294522440963e-03
-8.134636836404329774e-02
2.493811955519782686e-02
1.997746889903581624e-02
1.023104345832020860e-02
4.795892922347694265e-02
-1.196377569372767263e-01
-1.304489659118421643e-02
-7.536297712482037392e-02
5.769742879547692938e-03
1.497700672465678874e-02
9.028315176689466481e-02
-1.125174408559756131e-02
2.976474879326904827e-02
5.033791317484707060e-03
-3.250039752931341546e-03
-5.398153443739711621e-02
-5.569897268673634208e-04
1.330861338613106544e-03
-7.825390854948682806e-03
-7.272358497827462187e-02
-2.346347239253888592e-02
-1.059425866290740204e-01
-2.916197850817230184e-03
-4.429900651614360196e-02
4.396861432148776311e-02
7.335598868706111851e-03
-1.326765129961979608e-02
3.439946981605349063e-02
-2.672538558394779371e-02
-9.942550450153236907e-02
-6.747157549409682487e-02
-9.391529282104080223e-02
6.954430399828129966e-03
-2.118507425676523226e-02
6.581257491625301659e-02
-3.351486219426551977e-02
-4.989554330328482834e-02
1.135715289954232765e-01
1.210506830999113700e-02
1.305498177803498805e-01
-1.012794525689277858e-01
-7.571463391335363224e-02
2.793178010837308461e-02
-6.945499258590376312e-02
-1.426550395519884940e-02
-4.633098318595998272e-02
2.358719493253350064e-02
-2.320806033757191744e-02
2.350547921406483456e-02
9.718630236041876647e-02
-2.002622924237882143e-02
-1.994201113936394654e-02
3.141802725766470322e-02
-8.203205154287153411e-02
-6.437278588210330887e-02
-3.013991288676664757e-02
2.297158915779771299e-02
-3.123103418282868401e-02
4.267818431974756965e-02
4.143523801749562918e-02
6.239459560154475559e-02
-9.877921615079071627e-02
7.920453483284456767e-03
6.090952822782408349e-02
-4.000867363672499372e-02
2.617437219511061300e-02
1.842509320372578627e-02
-4.676925536628337432e-02
-3.665822360963186255e-02
2.954933385407276444e-02
-3.986671766744168122e-02
-4.281127892210421018e-03
2.959162646940709587e-02
2.778088746703468240e-02
-1.240672103356745340e-02
-9.281942091179865018e-02
-1.062619956670174566e-02
1.481652734833846866e-02
-1.707280064080088020e-02
-1.839089253411935188e-02
-4.989757156188286309e-03
4.396533395416137718e-02
3.965948706746498520e-02
-5.939190650828063411e-02
2.327835803610317500e-02
-2.171969007009542929e-02
2.330401432675030526e-02
1.346494547871583160e-02
-9.131885267840948381e-03
-7.195270982833708653e-03
-3.314206798315071784e-02
3.312621105538530314e-02
-1.031347844088144859e-02
2.815041524479682325e-02
-2.264541628056091979e-02
-3.874840727961507969e-02
6.497783942981767702e-02
6.183995934874553235e-02
9.980284933091768118e-02
1.021889650390825355e-01
1.774484227282067117e-01
1.344115962507707596e-01
1.192755361662784508e-01
3.315553160424358076e-02
7.083432172225072321e-02
1.836868320992968151e-02
-1.526712650149967404e-02
4.211407147628594590e-03
-2.720401799805608270e-02
8.889250510123146432e-03
-6.094342944722762334e-02
6.550529563227407148e-02
-1.439689068322333176e-01
-1.520609783500228573e-01
-1.626962615915863442e-01
-3.899893992663332892e-02
-1.034504018484039278e-01
-8.225355180324722681e-02
1.662529471570321771e-02
-7.142541432846008509e-02
-4.215157021698257706e-02
2.239535535927566004e-02
1.581836653954173241e-03
1.049844589510015407e-02
2.066441818466064478e-02
-5.215740235595998225e-02
-3.144482385481746356e-02
8.634959408487463683e-02
1.646847706778346507e-02
2.974377495898298390e-02
2.475166461457182360e-02
-5.730153123531220305e-02
5.466991458464436765e-02
-5.742939749473860434e-02
-1.726868514712990871e-03
-1.017789866182506123e-02
-2.291118845711039020e-02
-4.679639627166917032e-02
-1.112610111444535532e-02
-3.031712087424970337e-02
-4.918683985443828011e-02
1.825329628107667454e-02
-4.116969431264708677e-03
-2.243201892744069170e-02
-5.458124605867904766e-02
2.694931092069559331e-02
-6.603647916412017094e-02
2.645675348187160464e-02
-4.494378288770976837e-02
2.774665891142465753e-03
-1.873760375377336862e-02
6.093651530194447163e-01
6.777197225275954917e-01
7.979430363341353249e-01
9.024496500877784433e-01
9.910526690219058077e-01
1.061502053386517153e+00
1.109611020435145923e+00
1.304520329366020803e+00
1.219908851562030661e+00
1.357122215527305276e+00
1.420223624876192581e+00
1.501126345883313284e+00
1.336535859476400301e+00
1.533459966447038969e+00
1.532777823606188639e+00
1.432552133804746664e+00
1.501160407277356112e+00
1.456660233930831660e+00
1.376328599231226635e+00
1.287630443335828323e+00
1.214867331373544745e+00
1.014591596729013112e+00
1.060036705711839389e+00
9.708952597914399796e-01
8.752234330619178548e-01
7.299043146970558560e-01
6.665778612227436506e-01
6.206980380700345412e-01
1.283676691372409862e-01
2.290540064945944393e-02
7.512003149936985480e-02
6.387931814092248639e-02
2.173979562628713946e-01
1.844485507361173782e-01
2.392310079713617366e-01
2.460213975610189840e-01
2.213039052092888592e-01
2.742669773421519963e-01
2.448917845946648741e-01
3.202671211042544819e-01
2.164290733023104818e-01
2.611462308958926726e-01
3.210834077195340308e-01
2.192640170424589863e-01
4.457739955647295749e-01
3.088304996455615292e-01
3.095301482519624003e-01
2.898424238435792777e-01
1.886495462462735306e-01
2.576219676321104823e-01
3.123459289205178235e-01
1.964577936075310449e-01
1.124670108737400170e-01
1.181892673805093746e-01
3.112898964296780674e-02
5.230506644378124514e-02
1.005696850879204268e-02
2.779768147498363692e-02
-1.283634412955785842e-01
-1.485852305658341976e-01
-1.351139257339717403e-01
-1.881584678500329844e-01
-1.203632727856751850e-01
-8.718924447026077384e-02
-2.418140633109915894e-01
-1.937383840213689756e-01
-1.942514595850002301e-01
-2.242998887700745902e-01
-3.182822819452244545e-01
-3.272925041545090008e-01
-2.754097681073370274e-01
-3.029153302982434681e-01
-3.083146898799266067e-01
-2.630399530935883523e-01
-3.247345937068819577e-01
-2.416928135983191506e-01
-3.376077653762882269e-01
-2.814633488147466611e-01
-1.453336276901193713e-01
-1.730523532215607341e-01
-1.345566586088458583e-01
-2.007892350720743846e-01
-5.197280319710304020e-02
-5.305015574292546582e-02
-4.170574050879174988e-02
3.661843750272814751e-02
-2.541764732387907441e-02
9.952632911916210398e-03
-2.108661672465677109e-02
1.037726288894797455e-01
-3.434456362009710023e-02
-2.515700673988114505e-02
2.872282070125158071e-02
1.188996916799545667e-01
-2.523445996809430339e-02
-2.579640090508006356e-02
-2.576703114691506619e-02
3.781604480718176592e-02
1.059359772613101616e-02
3.863551814114013494e-02
1.955907062813413977e-02
-4.705882689610838693e-02
4.911600215464215213e-02
-6.032409922296080862e-02
-3.208548529547080100e-03
4.918187942704968507e-02
-1.011844598386264261e-02
1.009962196416863993e-03
-4.186058179366328180e-02
-1.554756839520581371e-02
8.466758819926829133e-03
-3.994068373959946266e-02
1.081096514823461502e-01
-7.355928015917910512e-02
4.451545426512199671e-02
-3.270157525609417720e-02
7.460302086415893097e-02
-2.205950447253081717e-02
-4.113642129359151856e-02
1.182397958817280742e-02
1.003058439840065486e-02
-2.075546481360958373e-02
-6.620172768052326462e-02
-2.894392266225803353e-02
-3.404968452490079317e-02
1.701488932083114122e-02
2.032278915989075771e-02
-1.315640333689344424e-02
-8.022470128483039087e-02
-5.104380672841635214e-02
-8.212412349079430129e-02
1.471814005425815808e-01
2.197481101128077180e-02
-5.602745941030168320e-02
-9.790457074388865533e-02
2.939131432613371897e-02
-2.228580695503384196e-02
-2.277096542392481951e-02
6.963377696427330843e-02
1.828308007598558344e-03
-3.288875299851112127e-02
1.074408770698079968e-02
-4.508198766219429637e-02
7.621132509170129576e-02
2.807921903367594646e-02
1.093187907700939321e-01
-5.293599245571485590e-02
-4.175496582750969771e-02
1.620162340096216111e-02
5.215280732362453930e-02
-2.971391321580299505e-02
4.193324480767379476e-04
-4.294594750894421137e-02
-4.419512792345775543e-02
2.647240009319998255e-02
9.058401173882989210e-02
-1.390966496971762605e-02
1.372625672986567749e-02
-5.271810257974410274e-02
-2.804863989967895654e-02
-1.055518082159753179e-01
9.871494658894007512e-02
5.509087988913877881e-02
-1.898620225140898801e-02
2.896875944749226564e-02
-4.103649436978056009e-02
-3.471438114355931276e-02
9.154437210552517773e-03
3.112168052141182917e-02
5.283482558555790964e-02
-7.536488280172398690e-02
1.221895785841760340e-02
-7.949876465709145024e-02
3.935429741931454478e-03
3.911356856501192747e-02
-7.673082791713348172e-02
2.918575041051194724e-02
2.697443435558206926e-02
6.832412651779451451e-02
-9.368595458457691476e-04
-4.245739539076849589e-02
6.127218737442589880e-03
1.726070775506137467e-02
7.303439371985298578e-03
-3.745305108261017674e-02
1.976571040400548415e-02
1.076137943735707703e-01
2.177589164586791852e-03
-1.008390611316073299e-01
-3.244809018370099774e-02
8.066155282295339735e-02
-8.524868689620329273e-03
7.214563213356557647e-02
1.306407940505549363e-02
5.036372092369237330e-02
4.456876789362135272e-02
2.606591468843640069e-02
3.128360322946740352e-02
3.229134414189784030e-02
-4.872785871290253451e-02
2.568502048800062193e-02
6.191497723931872754e-02
-3.182457007597049373e-03
5.997618980914346670e-02
-6.953258592833357066e-02
5.630681756725956083e-02
5.221754354400636594e-02
2.081385690359532914e-02
2.110871482558590584e-02
6.423111508688932048e-02
-1.254541899621272431e-02
-6.545193365372507788e-02
8.726126537060929778e-02
-1.402466552473223896e-02
-2.615698190058815108e-03
-2.566071518036046675e-02
-9.088659003160726169e-02
-1.276753224154916072e-02
-1.173385101130829944e-01
-3.789188786217762700e-02
-6.222338282884653377e-02
3.101040505022302843e-02
5.089702209312518821e-02
-2.352251099192521899e-02
-1.600813793587290909e-02
-3.355181175137628841e-03
-2.367364857244989504e-02
7.539267353809897543e-02
-1.853764096272488698e-02
4.608381241712730669e-02
3.471543713399503212e-02
-5.233085603142673126e-03
1.107130234165069338e-01
6.338271207233293902e-02
8.838215698384375985e-02
7.745611866492753406e-02
9.806990216364937230e-02
1.842431891621362228e-01
9.558181221274635042e-02
1.043073416810900017e-01
6.816402505098617670e-02
4.213415992837503399e-02
4.352715454806510564e-02
-8.586470212688346315e-02
-1.347898050300470052e-01
8.929549602127946628e-03
-3.663434366003995302e-02
-1.333448620279474861e-01
-1.014196450910055253e-01
-1.034316852166393269e-01
-2.180293538191473979e-01
-8.861975460567081408e-02
-4.911926808686628565e-02
-4.643645282352022730e-02
-1.000552809157368994e-01
5.625402716693865546e-03
5.566160491193470131e-03
-5.567385621287029851e-02
2.776013590463747432e-02
-9.503586605098965356e-03
4.996386990006757012e-02
-1.402757354827022067e-02
4.344091094119208185e-02
-1.878985914119696635e-02
2.720037912737703623e-02
9.438087769703763785e-02
-1.920402744613447857e-02
-5.400428293968940639e-04
-3.852618132599916478e-02
-8.812919238544235367e-02
8.855002887606688855e-02
-2.211425157932889185e-02
5.880474537207883851e-02
8.556918415589391189e-03
7.852825187912416223e-04
2.683550875830446880e-02
3.654228752471754688e-02
1.426565027509297439e-03
1.225105815087918805e-02
5.518139571958115275e-02
-9.815172184456509574e-03
-2.495297769352376131e-03
1.319264857676928082e-01
-5.347373484341588767e-02
-5.284289553336593559e-02
1.741438243841474456e-02
6.115536352075318094e-01
6.608206468782639176e-01
7.128253103268437085e-01
9.226120860521889178e-01
9.426883699439032593e-01
1.133988317904430554e+00
1.197825023260667310e+00
1.211133641466219935e+00
1.338239067885153011e+00
1.362078526576114834e+00
1.453644262251450936e+00
1.451258018538430505e+00
1.383397939790507181e+00
1.529229337604772310e+00
1.501584203646517457e+00
1.494939431037843880e+00
1.376905802345222085e+00
1.362179888916280390e+00
1.298201052423001656e+00
1.290496083762475488e+00
1.167015520462950429e+00
1.120353387823355362e+00
1.006739365943005282e+00
1.010145466243157486e+00
8.043596867680106177e-01
6.865008644125055737e-01
6.604706729855274183e-01
5.944497873882010897e-01
2.427771719435554976e-03
3.233721234000680456e-02
-1.741618209363658687e-02
2.165760795365473668e-01
2.020081055742380671e-01
2.204794479404202090e-01
1.870474450505737740e-01
2.889376408556508236e-01
2.555450859111567663e-01
3.343368988741899361e-01
2.542512538062262628e-01
2.478373052720329872e-01
2.385154450672359872e-01
2.619789501346726501e-01
2.305968644067861728e-01
3.425881899602100100e-01
3.614226463642632448e-01
3.350481452840876617e-01
2.128466481703074897e-01
1.595036770108740343e-01
2.109301686698938638e-01
2.271468320628607096e-01
1.655200624826630440e-01
1.244691244920870243e-01
1.031003126359385236e-01
1.851274459876401934e-01
1.635827903277237427e-01
-9.683199835500290453e-03
-6.751213683708238988e-02
-5.915522891368477088e-02
-6.148604827919501581e-02
-1.826862009014386390e-02
-1.283700401850570716e-01
-1.439962942269298329e-01
-1.432769131016944364e-01
-2.325850935533048114e-01
-2.748048524394722802e-01
-1.967260239886454987e-01
-1.987198462159076584e-01
-2.519906587620101002e-01
-2.856049281981282162e-01
-2.420918421933027087e-01
-2.105049205137191348e-01
-3.395163336148708799e-01
-3.280511364201253444e-01
-2.919658646556461679e-01
-2.760727659513499965e-01
-2.407397298560050303e-01
-1.903006706893138333e-01
-1.712826242087348572e-01
-2.713424009746033261e-01
-1.590734049190732080e-01
-1.994732314699014519e-01
-1.086766054887595007e-01
-7.879919542928615073e-02
-9.975574704248174607e-03
1.178675755182947635e-02
3.176429555196590149e-02
2.830381354487122164e-02
5.371782585684664602e-02
5.184271893722172675e-02
-1.735180566571264960e-02
-2.789329507481003861e-02
-9.905745752552151326e-03
-2.415030224752373611e-02
-3.666777426803866785e-02
-2.128313292650013764e-03
-6.305241929374173770e-02
3.426653479266638519e-02
1.702505820200466910e-02
-2.449344735754985236e-02
-6.413458101977757841e-02
-4.168030586100537893e-02
8.274970510126955850e-03
4.422215121324702194e-03
-3.717876538780980067e-02
-8.006917336652076556e-03
-3.357122681844326717e-02
4.844181837727004440e-03
-3.968108124753533944e-02
-1.525986088787748551e-01
1.859988772255244741e-02
5.580138136857715377e-03
6.469423999841947270e-02
-1.017817436166356532e-02
3.101614467156971026e-03
7.323381757871963438e-02
-1.165838842549053733e-02
-3.852702061817702556e-02
-1.459294363209174931e-02
9.335764121226523479e-03
2.060825500007269773e-02
3.710212181997208508e-02
3.052453380409005101e-02
2.780490658994350800e-02
-3.341951606183464485e-02
-7.959112993597612998e-03
2.917113631090354625e-02
-2.835279721820859258e-02
-3.313348617126654931e-04
5.400396386383792685e-02
2.339799165341786835e-02
3.829150958031939805e-02
5.571871578143211545e-02
-1.016696726659639498e-02
2.833677302377509213e-02
-3.416692424148939228e-02
-3.949198533560033947e-02
-5.743421482947900364e-02
-7.407559823973751401e-02
-8.818465940794613378e-02
8.683982610034808591e-02
-2.761942924070862754e-02
-3.937682105163448770e-02
4.872721820875378085e-02
-4.136293881751734736e-02
1.359913852487332903e-02
-1.146711229175439994e-01
-6.315275454682226300e-03
-5.287316292784556560e-02
4.956827948982506227e-02
4.749298342240630688e-02
4.773208622106847295e-04
-1.011584180624367502e-01
-4.856871770348315104e-03
-1.113036977806666772e-01
4.594504930349892213e-02
-7.105241721645483809e-03
8.614899059067625264e-02
3.435452470283308773e-02
-4.430045407696508314e-02
-2.397903726986633233e-02
-1.916650895103616872e-02
8.807051965978929253e-02
3.647929723874714092e-02
-6.883539197028731849e-02
6.562686044916031525e-02
-3.078552288369522079e-04
-1.670413420157819059e-02
-1.240884855093970646e-01
1.914847101400644208e-02
-3.099407743747071425e-02
-5.059301826213789648e-03
9.512054140048264994e-02
6.190027317858971811e-02
-1.234020757050914227e-02
5.063677108008451250e-02
1.083722667989137946e-02
-3.778906827154029924e-02
5.205140164656327229e-02
2.830062118802245674e-02
-1.508005759836894902e-02
2.972618235011968441e-03
2.749502907279966629e-02
-6.790056851621520395e-02
-3.138481631243139613e-02
8.689137681796517410e-02
-3.939543920319811543e-02
-9.939776092300539601e-03
2.974886984044939481e-02
-4.225043831731806199e-02
-2.803887706251637600e-03
-9.212661654980089723e-03
-1.616811820587685244e-02
-3.836569618477400634e-02
3.195175952541911418e-02
-2.945234816527832200e-02
2.291550072535373812e-03
-2.973717092392037104e-02
-4.846089501467407135e-02
-3.407228420533817831e-02
1.962575747935116702e-02
1.063132697114012315e-01
6.343936182109477517e-02
1.039125709987892728e-02
-6.408228625004852574e-02
7.080743886797584430e-02
2.421145602407871050e-02
-4.284329625441605539e-03
-4.236866250170528980e-02
3.269636319898384241e-02
-3.377705204624023572e-02
-2.238332714120030639e-02
-8.038013404439617315e-03
3.120476467199665566e-02
-5.533366835797588756e-02
-2.222318765466313115e-02
-2.018867986208916498e-02
-2.332979517598834929e-02
-1.526590023687733437e-02
-1.897462426427357074e-01
-1.535991302040934370e-03
-4.319118076733383105e-02
8.832345660172408186e-03
-5.481234201665078493e-02
2.497716132471138398e-02
-5.439265058628589555e-02
-5.544568592506374932e-02
4.265140884289224041e-04
-6.168919094631630101e-02
6.908488771583422110e-03
6.048291061240045063e-03
-2.525523201635537091e-02
2.511443559519310753e-02
1.495317584912129738e-01
1.425344903644288341e-01
1.276517866553076863e-01
2.996433972712071736e-02
1.039979202081053877e-01
1.564798106449366566e-02
1.067297664917558342e-01
3.216796825480804090e-02
8.816783195716718091e-02
-3.035649321865459271e-04
-9.081201333085343885e-02
-1.661788736089353166e-02
-1.046432511305057517e-01
-5.601372694887158526e-02
-1.595479605959514435e-01
-6.304991239744375808e-02
-1.165556164780352788e-01
-1.326266340179737546e-01
-6.729405745418284845e-02
-1.398659711445023324e-01
4.211415657583192362e-03
-1.217184756866604711e-01
-7.841603908079243512e-02
-1.045016405727401954e-01
-1.898745418262309109e-02
-2.668090786269283754e-02
1.110972382827860039e-01
1.814808521231736985e-02
2.803491111009143166e-02
1.198891743110782615e-01
7.753809763809894201e-03
-1.721722744783466680e-02
-1.326769853208853711e-01
1.621504940460774813e-01
5.861706545175883465e-02
-7.549741291421580014e-02
-2.896765119717998466e-02
3.869020231936970422e-02
-1.587735808543103491e-02
6.360729350393422299e-02
-4.319072950183457799e-02
1.203319479944850445e-02
-1.265569751184193433e-03
-5.170597023419262923e-03
3.535713039954731934e-02
2.147696535352554628e-02
-7.927889329561960130e-02
-5.992728498015621741e-02
7.086078390162278695e-02
1.695664274760618970e-02
7.955756003769662299e-02
-9.547617151314941042e-02
5.682748196727541862e-02
4.742509583103402537e-01
6.629135734392530566e-01
7.438389458799107290e-01
7.275935451160298051e-01
9.072584421248363062e-01
1.036761384929619334e+00
1.139272990474424541e+00
1.139561807322716724e+00
1.110326030453232526e+00
1.147901370299649448e+00
1.402025498335659037e+00
1.397942037981867447e+00
1.528212729436078776e+00
1.523356838454423823e+00
1.580789842210327700e+00
1.539803973316351327e+00
1.518276945633398656e+00
1.368568687617393476e+00
1.384639982539539460e+00
1.323932361117085899e+00
1.347974373019689587e+00
1.151902520991206158e+00
1.136172984262295405e+00
9.506872038883710241e-01
9.158352634916290258e-01
7.380619537027168775e-01
7.269742091468406331e-01
5.625895401451422861e-01
4.817718877427679680e-01
-1.843728641728739279e-02
-2.581170606155421682e-02
8.090985411106789427e-02
5.106391419226360973e-02
1.857759110466259134e-01
2.512517013677587618e-01
2.411380836108431291e-01
1.732094379944880413e-01
2.915040691541315732e-01
2.399165720454210782e-01
2.893258992517083739e-01
2.925729764194986426e-01
2.852086725084725938e-01
2.988928377932710267e-01
3.139872697242559463e-01
2.579593957203853982e-01
2.961294543833464243e-01
2.311871910154655596e-01
2.064490356163683482e-01
1.880832321940976715e-01
1.920090718215410053e-01
1.478197618071004082e-01
1.790587651996194407e-01
1.491074472134354678e-01
8.471815249469902276e-02
1.724608173597526051e-01
6.654865726652295366e-02
2.485404830429208817e-02
4.234748256738656014e-02
6.100491000331150632e-02
-1.164516952201583577e-01
-1.480031112512077418e-01
-1.821853370996887045e-01
-1.376895879791792954e-01
-2.035448049752246746e-01
-1.798263777787267592e-01
-2.896620334267094865e-01
-2.298861040124731414e-01
-2.254228056131756253e-01
-2.588948269799863922e-01
-3.039591792784375190e-01
-2.994676961496277601e-01
-3.027688598244738793e-01
-3.244921972487875284e-01
-3.275382532852926243e-01
-2.463754517820632428e-01
-3.712543207748454921e-01
-2.925535481093091694e-01
-1.599950183223337041e-01
-2.024296931207598960e-01
-1.614687867954608391e-01
-1.534209284340369017e-01
-9.581855611264056272e-02
-1.082228506444125049e-01
1.620100434820442858e-03
-4.019601367966199601e-02
-5.442954775856912591e-02
5.327242078864613539e-02
-3.063839057582591618e-02
-4.275152199163758521e-02
1.101749282819978748e-01
1.772137520744325109e-02
4.464900447980989229e-02
-2.511562548551856192e-02
4.570026119367032180e-02
-3.602923119175345523e-02
4.461304875468991016e-02
6.819952813839262606e-02
-4.423454968666206549e-02
3.295778313034089285e-04
-4.182955700476368582e-02
-5.195365233015017403e-02
-9.869167942945414329e-03
4.896759410047830247e-02
9.963504708316627337e-03
6.384726228586672103e-02
-1.428438408719014119e-02
7.882948498566419784e-03
-4.442292000006899805e-02
-3.855411910665270531e-02
1.663731221037729330e-02
-4.903921922001457101e-02
-5.642611071640438875e-03
2.230453320453432749e-03
-3.320608656176827350e-02
2.223643538608803798e-03
-9.221787054030471456e-03
-8.993427263416194084e-02
5.809944188411452631e-02
-3.933653886850802667e-02
-9.678336216344569920e-03
-5.884859050080329737e-03
-5.286313463094326898e-02
-3.941348335851110884e-02
-3.656800756944268704e-02
-9.520997786647458772e-02
-5.993147429124828784e-02
1.848570444085796335e-02
2.192732770336602854e-02
3.692976483082260983e-03
6.115078811983215568e-02
-1.803969540031951854e-02
-3.385356522323153435e-03
-9.824151936862574042e-02
1.152991311991436174e-01
-3.969547999176728514e-02
-2.000974112071759320e-02
-3.762801687369662917e-02
-1.390353929191199059e-02
-4.072982941867335158e-04
1.792241202811787129e-02
1.713250012058447833e-02
1.484274697950790749e-02
-4.490224645935540077e-02
-2.343461830543819985e-02
-2.794897131874050922e-02
-3.892805342188691148e-02
-2.765199295363869603e-02
-4.441402417510934009e-02
1.066621255296607701e-01
4.387626382678404269e-02
-2.932150399971630850e-02
3.921840144779351056e-02
7.999111305381712000e-02
8.977389198802336254e-03
-1.109246119290521471e-01
4.779678587557027042e-02
7.820553118422685079e-02
2.742008464016602864e-02
-7.388454693948613705e-02
5.790848971649942278e-02
1.067158898069184465e-02
1.099275637026601027e-01
-2.857560796557588600e-02
-5.133581255801883403e-02
-7.784721636646238507e-02
-2.529524832576943594e-03
1.419262913802743324e-02
-7.098353001184586238e-03
9.676808992718756441e-03
4.121372716595159830e-02
3.396412491565904690e-02
-5.873592456761044314e-03
2.355635895135406097e-02
-1.362488203558976339e-03
7.469169981400423930e-02
-3.019387661566986375e-02
-3.374766726144016321e-02
-4.383066702438693368e-02
-2.547226823202731333e-02
3.162453375067217354e-02
7.128610079313085768e-02
3.864756646906941651e-02
-4.052906892863305209e-03
3.228991078324449510e-02
-7.617329766855246431e-02
5.671318642245546521e-02
4.754252536750894209e-02
9.415397711743666437e-03
-5.992645306010579292e-02
1.038132987707662304e-02
3.012928094451678557e-02
2.565855087029142445e-02
-3.167891752608284484e-02
1.061457631970005311e-01
6.932972762852365745e-02
-1.443364154044706783e-02
-1.310624769443586093e-02
8.363594125919295019e-02
3.988238719437785240e-02
-1.083917366273777320e-02
-3.989737887190008409e-02
3.418407758188276441e-02
-4.342375257633093559e-03
7.244608019214427395e-03
-4.798193036807644335e-02
-6.865321080786666169e-03
-6.319355317260286209e-02
-3.068175489289601265e-02
4.054316011660832192e-02
2.547117063721320365e-02
-2.521261947248577828e-02
-1.730541526158656945e-02
4.126362919384456152e-02
-9.861324109993604915e-05
1.820268226411211887e-02
4.214126974543547927e-02
-4.667500637570163452e-02
4.026029117082104147e-02
2.921002954638659763e-02
-7.578032101760931449e-04
5.074752855347092716e-03
3.065280941034245754e-02
8.206361284377955423e-02
5.729516692140555062e-02
2.136677662868322058e-02
2.206013682653090724e-02
-3.988727379970043868e-02
3.214734177934197579e-02
7.670625623208611465e-02
7.850723869943111721e-02
1.049588132119020911e-01
7.350656818468832843e-02
1.488314412850808566e-01
3.569737382149259369e-02
7.316046484886748469e-02
5.839436521053192192e-02
6.701961620276625231e-02
1.553644589107462948e-01
1.894474136037984091e-01
5.750712732679100214e-02
1.687712673243164235e-02
1.963055629180888995e-02
-3.389324022359372496e-02
-2.179043856588827252e-02
-9.870302626327022433e-02
-3.839681447590220092e-02
-4.223724669492431860e-03
-1.304191144324860219e-01
-1.257643471360695431e-01
-1.660652823199687267e-01
-4.370527691422988054e-02
-6.698409430887521110e-02
-5.838611813791273752e-02
-6.886081255478010421e-02
-2.819219423233979005e-02
-3.236530563045548342e-02
-7.686095527547077977e-02
-9.805163311393833014e-03
-2.748597480416718059e-02
5.095336967177081094e-02
-5.898479120461041364e-02
-2.606215461752186234e-03
6.234591464182207693e-02
-1.416900989856972187e-02
7.300199940368139184e-02
-3.364810503481313261e-03
2.001517343136352198e-03
-3.325299697565695101e-02
-1.208273073629576727e-02
2.831420934125122597e-03
-9.698958260622467329e-04
4.782162214504634412e-02
4.945093088633054773e-02
-4.099824859590288882e-03
-3.721987865037017923e-02
-5.891194012567577132e-02
-4.266495808496392067e-02
-9.529918931601717713e-03
-4.344361926835771381e-02
2.926787705320988558e-02
8.630173927745557472e-02
5.775973277168092862e-02
3.414501969732756242e-02
1.591369812111234974e-02
8.631407116851072536e-02
3.416509571679284072e-03
5.977199030502585719e-01
6.255985289653505088e-01
7.563558749058414410e-01
7.639036766961887492e-01
9.632536069187849215e-01
1.074548108395029899e+00
1.113873779753064897e+00
1.192491422648512822e+00
1.214040692850750780e+00
1.353421299774622222e+00
1.364671802033872394e+00
1.391471198443851476e+00
1.574989426916110657e+00
1.470050084316480099e+00
1.476223119378028414e+00
1.492667904520582844e+00
1.479201528928876019e+00
1.457084342270500654e+00
1.307204807385621281e+00
1.281060781955381200e+00
1.201696721774139887e+00
1.114958668817460641e+00
1.108400060837005929e+00
1.023446867981806729e+00
9.570355688288573193e-01
6.863554495383321630e-01
7.628871327509362255e-01
6.754243308680970559e-01
5.190341888520474400e-01
-2.006163741371927434e-02
1.081002456831900577e-01
2.387570226331506285e-02
1.646692833544967371e-01
2.266378324737997052e-01
2.996810186833027134e-01
1.824472977696753317e-01
2.070126261207454743e-01
2.836426111692887941e-01
2.234662296101972145e-01
4.267603069852734521e-01
2.718520667875397034e-01
2.879570086526078154e-01
4.093728304030659348e-01
2.992249297339363845e-01
1.721482235393115845e-01
2.622849933848708792e-01
2.314567189388948565e-01
2.108288035207796229e-01
1.905742154398625821e-01
1.652323390698709205e-01
2.775953476684064336e-01
1.523249562100008059e-01
2.344932801885855900e-01
1.571136298882051530e-01
1.985432755775201619e-02
4.795342622720202841e-04
3.634348106159505237e-02
-1.098321426488907404e-01
-2.272549326057473479e-02
-7.858331803729584619e-02
-8.234264822639070225e-02
-8.993271596422974801e-02
-1.419865169210210443e-01
-1.781003898915728689e-01
-2.416229572548640459e-01
-2.128804766096658863e-01
-3.421987326867875767e-01
-2.625404646773357165e-01
-2.758556046169060028e-01
-3.475029187842743061e-01
-3.110960576132228983e-01
-3.193923147655034489e-01
-4.517536058621227091e-01
-2.717675518421104885e-01
-2.690167370454973894e-01
-3.297298534543951498e-01
-2.192257662369188620e-01
-2.314092402485605493e-01
-2.362640514804833503e-01
-2.108866149182334060e-01
-1.590813727123129850e-01
-9.677914827492072047e-02
-5.325568583518165700e-02
-8.243636425044720273e-02
-2.563794284842645793e-02
-2.108038179792764890e-03
-2.382504131727489292e-03
1.896990813600522852e-02
2.356071439889395255e-02
9.100827325053291450e-02
3.650270291543284557e-02
7.339881708752708789e-03
-3.769370718657744090e-02
-1.695373987584991235e-02
-3.036952128824102135e-02
1.600834021794965076e-02
-1.750060699457818602e-03
1.111680232882858443e-01
1.300664899984366740e-01
5.836518017243833706e-03
-2.014699116525910105e-02
4.579910200619715689e-03
1.723105979968267421e-02
1.122314403356071411e-02
-1.812734992486973382e-02
-4.177432680584122066e-02
-5.858998270349642656e-02
1.006704058509314825e-01
-6.801862820818918576e-02
-1.522592026810995827e-02
1.789468347744209084e-02
-2.661088178689344219e-02
-2.912718112068436727e-02
-8.966595519737559361e-03
-3.768327752009820175e-02
-5.858892798507023270e-02
2.809400431855586799e-02
1.365103353930648827e-02
5.697042925923274936e-02
5.487676358712639119e-02
-4.626774905857250947e-05
2.770136454523347211e-02
1.581877495490210256e-02
-6.677985189478155559e-02
1.950527646768400849e-03
-3.810278429077847140e-02
-6.058088359206253819e-03
-9.116173058358535003e-03
-1.706796829598564158e-02
-6.185201082555155661e-02
9.971068565347046553e-02
-2.994910751566232099e-02
1.124894317861988569e-01
-4.001711517935656846e-03
1.006292719413534320e-01
2.884218683478737000e-02
-6.613088498306871066e-02
7.138963845328502589e-02
1.135129741008090581e-01
-1.578586000718492158e-02
-1.492245080663192995e-02
-5.336187565913857490e-03
-1.510716599788702180e-02
-2.433861359834179824e-02
1.160567425521918938e-02
8.658363204500282850e-02
5.699049787916840581e-02
-1.509753521157458644e-02
6.233053319519162028e-02
-2.125245568191033371e-02
-1.878678908312983106e-02
-6.916298108717970627e-02
5.708244573588013016e-02
3.862998165401003436e-02
-2.515228961139535230e-02
7.342554621985974278e-03
4.757842656978972240e-02
2.587292002651095379e-02
2.084985706505063791e-02
-3.528432980018823828e-02
1.646026856953693206e-03
-6.647978063481076866e-03
6.565048231080776453e-02
-4.356084663763179488e-03
9.844417837173317920e-02
4.891587223363211279e-02
9.171969457158309080e-02
-1.100569999357554896e-02
7.366785779623460928e-02
-4.860282128067635113e-03
3.496022235210859835e-02
3.927659842571652044e-02
3.399989304638103421e-02
2.292545136599927202e-02
1.892729996258017341e-02
2.394912891465317620e-02
-1.583421274930864597e-01
-3.002210393773806218e-02
1.964031201409710548e-02
2.043480359399510882e-03
-1.299596964194282660e-02
1.829171683856259042e-03
3.781252193007687227e-03
-4.410019482994407408e-02
4.487587781857339808e-02
4.790997210817402735e-02
-2.265501733062858999e-02
-3.370458359491027706e-02
-1.101502110723985052e-02
-3.605397114464046343e-02
7.440643194838970909e-02
-3.671523735864675592e-02
-4.844124182487948710e-02
2.910616528515016024e-03
1.548983492067126412e-02
-7.181759827651996997e-02
-5.820814404432329836e-02
-3.334516151924295235e-02
-1.085169441589393657e-01
5.876586315528250712e-03
3.686541142411842165e-02
1.592948720791017778e-02
-3.465800317919418699e-02
-2.173423899199907958e-02
-1.692465726576070084e-02
2.409092542263742767e-02
-1.180499143560889141e-01
6.744758869565832538e-02
-3.242742384807374180e-03
8.712293099774805899e-04
1.673246059864755622e-02
-1.538451329687762215e-02
-7.314028830332763853e-02
5.734119261244794569e-02
-2.940461830653297651e-02
4.381441974368816689e-02
-1.531899371495027209e-02
8.080702167978856890e-03
2.245631321169187095e-02
5.538203231529577331e-02
2.379397656870000516e-02
-1.290535641048065896e-01
-1.560804638828191260e-01
-5.233134659819887319e-02
-4.394234749372573356e-02
9.525097397318897652e-02
-6.818556035876578714e-02
-3.091342634614369089e-02
-2.966310655415826947e-02
-2.320877428386455485e-02
1.931207420286307208e-02
1.361251898786565440e-01
3.375830659340750550e-02
4.311788506921146458e-02
1.437199732921221607e-01
1.296350717195102475e-01
9.175250675427618074e-02
1.059412825404454361e-02
1.418077100817153879e-01
1.923130544815752629e-01
6.969393914584925964e-03
-5.593911869929767133e-03
1.627792701338797235e-02
7.264954924896266375e-02
-7.056706149677197115e-02
-1.505534120362493344e-01
-1.097891492008256087e-01
-1.158970004576387464e-01
-7.904850337169865016e-02
-4.349864552375586751e-02
4.314203574873466673e-02
-1.031111113697001369e-01
-5.051737539460985499e-02
-3.715004318592239618e-02
-8.096409176995419954e-02
-5.713937895168138409e-02
-5.783912699971886784e-02
-2.161756528299850141e-02
-2.439441498668103170e-02
-2.684257770810596563e-02
-8.221699796223964907e-02
-3.450771110602882108e-02
-2.028847496230443137e-02
2.390599601114902842e-02
-8.774162960668042965e-02
-6.364801023128215107e-02
-2.833291763980158237e-02
3.793711885371991305e-02
1.907501060531623799e-03
5.717557421810440937e-02
1.153979289031547423e-02
4.161668612482705143e-02
-3.938195785199262444e-02
3.559014823170687097e-02
1.376516429770132943e-01
5.482010743026985433e-02
8.880894234050931701e-02
-2.301382112033529062e-02
-2.987434254452200552e-02
-6.295957170013303378e-03
-2.743081883665922371e-02
5.001709428437872695e-02
-6.425905910156047562e-02
-2.295645948597652055e-03
-3.094133056899433295e-04
6.178751653671130800e-03
6.743504464787470898e-01
6.437802471430250639e-01
7.076366003070891919e-01
8.472504335367283534e-01
9.511093612110733675e-01
1.016366947017049771e+00
1.157858161548637188e+00
1.210047590524333527e+00
1.309003599124699990e+00
1.329065592223529491e+00
1.467118353890175753e+00
1.560423601403769345e+00
1.577279598037784281e+00
1.420150120596520571e+00
1.464860835626343061e+00
1.438607401862643798e+00
1.425705609271852747e+00
1.414770340091874745e+00
1.307661709124131377e+00
1.236123266986011382e+00
1.177955320284413077e+00
1.210086849483106297e+00
1.023074557012294994e+00
8.848144640131170302e-01
8.536245648392064567e-01
7.276835586931885702e-01
7.392248201362271454e-01
5.311450507330481852e-01
-2.465908251138820839e-02
-4.178288713702779655e-03
6.256366234079341337e-02
1.946126630039337613e-01
8.605390654442243714e-02
8.473416225766122745e-02
1.959509090284338728e-01
1.967262915604439111e-01
2.346537274530110517e-01
2.496476475888905200e-01
2.203416125962420202e-01
3.177264524740648355e-01
2.410931909857952082e-01
3.432882640386799022e-01
3.234486461810425206e-01
3.378307581567582818e-01
3.231394283630831255e-01
2.220173509744841900e-01
3.264827612692391412e-01
1.844521544719601724e-01
2.440786343810461834e-01
2.153422255722624301e-01
2.397362025301632005e-01
8.907559087310554236e-02
5.406150776803018976e-02
5.968731193310421179e-02
-8.668895534491741217e-02
1.091265855243946092e-01
2.818929681102633200e-02
6.537093185911017901e-02
-1.040983932662791489e-01
2.950719090653738941e-02
-1.414949810621339288e-01
-2.056904329017974487e-01
-1.557287693764173309e-01
-1.629935781684079266e-01
-2.344349548670929817e-01
-1.969893394704094747e-01
-2.811280907320957700e-01
-2.442911763550065785e-01
-2.801228265711419585e-01
-2.368283944235171079e-01
-3.395188854810865520e-01
-2.903643230060335423e-01
-3.291303270823924265e-01
-4.188968180789476303e-01
-2.723260895697930950e-01
-3.440659606375648938e-01
-2.393806765883038368e-01
-2.846455450645455354e-01
-1.815831364595729136e-01
-1.506009051067814797e-01
-1.617953974353915081e-01
-1.625824049286013484e-01
-9.389994358381965889e-02
-1.324672939018571582e-01
9.020822625421275054e-03
-4.883098121476166925e-02
-2.556886862165931931e-02
3.132828450773958440e-02
-1.011854045803704527e-01
-2.512862372215254533e-02
1.596536983487245945e-02
5.737937501750964980e-02
-2.926310856580767797e-02
3.014096562879397048e-02
4.159355031043816125e-02
5.027822069570708763e-02
6.617336933876414272e-03
1.191880843066738804e-01
-4.889028780820118408e-02
5.442058006629912903e-02
-5.815089931176425225e-02
-5.348169892410973431e-02
2.181032506139630317e-02
1.965305739620698110e-03
2.688664802899648140e-02
-3.804429951419940892e-02
2.159987310754607481e-02
4.327974145110613513e-02
-3.280581322676999478e-02
1.487896584121581149e-02
1.879893114613867544e-02
2.231417760035267657e-03
8.408478622894765761e-03
-2.268109668476079102e-02
-5.974781033600822834e-03
-3.124607083446663547e-02
-1.310933711136075090e-02
-6.223613573731787141e-02
-4.941284591748112964e-02
7.139938843139843894e-02
-1.101413087153698123e-01
-7.909421793121013122e-03
1.014635245897403150e-02
-3.686101408971903526e-02
-2.190096118261400382e-02
2.888632112613784969e-02
5.193344522288195764e-02
-4.820892132200318980e-02
-6.296116790902334115e-02
-8.765310034340217937e-02
3.840588126129816648e-02
2.405495389127420766e-02
-4.644094887728134058e-02
4.822768746478536123e-02
3.758531858145016954e-06
-7.407245551659351335e-02
2.862888120550621199e-03
-7.366820337719658107e-02
4.988227423320758247e-02
-6.663143837986125646e-03
-8.609468087882751752e-02
-1.019110844226650547e-02
-1.213820407413321034e-01
7.058048783236271773e-02
-8.899412494830530318e-02
1.912359491225862698e-02
-1.174084264596893940e-02
4.581735360718588307e-02
2.531825562112322708e-02
-7.824572505402777045e-02
-7.065639778657937034e-03
3.406498149918835150e-03
1.512589995885434829e-02
-4.954973306572651309e-02
-1.044290237420470169e-01
2.484953059493687569e-02
2.576816388791852708e-02
-6.837023177851474232e-02
-1.720900484921978127e-02
-5.182933139807940903e-02
6.726690605760811403e-02
-5.265515846253418508e-02
-1.450953468361748482e-02
-1.981745922674311641e-02
-7.529888318359587163e-02
1.514516974695762942e-02
2.043009971778999082e-02
-2.903142337070614698e-02
-1.153754427459865312e-02
7.793202249810149418e-02
3.148978938234190533e-02
-1.365789377964680799e-02
1.575594097920500133e-02
2.640648134751157408e-02
-7.997808088557852024e-02
4.766270874956014120e-02
1.330058740299984790e-02
3.730450866334083636e-03
-7.045148985109762202e-03
-4.594991825479922791e-03
6.763801159230791588e-03
2.801708065991823527e-03
5.777709409996152623e-02
-3.661882701858600042e-02
1.132720927390057364e-01
-1.144844168015625857e-01
-6.290526649783846744e-05
1.102486618514372102e-02
3.624326082752261230e-02
-2.916097367782851182e-02
1.338462687294331502e-02
-6.696116657293803807e-03
-5.795180981018846489e-02
5.959258070404527957e-03
-2.900546991849761724e-02
3.494801992341528031e-03
-5.746518967174835124e-02
6.598077193975478844e-03
-9.915820649218287652e-02
-4.964835922982880137e-03
5.747256471245289385e-03
-3.825345287409074452e-02
-6.128117673840489943e-02
-2.910504992309231528e-02
5.715050558769671496e-02
1.715563599592801608e-02
-2.211771631840194624e-02
-3.944890902917066317e-02
3.998802521603158494e-02
-5.382139194070124921e-02
-4.840284881456369259e-02
-5.810409434236327164e-02
3.203089476357420112e-02
-2.847654062999296562e-02
1.670094255851115386e-02
4.258270773466118347e-02
-1.892615970030957911e-02
-6.784853918272518158e-02
1.610591015056154693e-02
-2.904685130609207730e-02
-1.005433362777720862e-03
-6.829623909770457524e-02
-2.613785282171574020e-02
-7.384660694116935986e-02
1.508652235522773589e-02
-3.190989103569069618e-02
-4.096814596561186572e-02
-5.823089625424270749e-02
6.593588470330204176e-02
-1.860416376811712541e-02
1.064189796531209709e-01
4.663715521760232463e-02
4.365566744332166627e-03
7.424572640017233771e-02
4.984184338782608747e-02
6.187584987277186532e-02
5.696982159220671110e-02
1.440016724659843594e-01
1.161704247390525913e-01
-1.619724256991389444e-04
1.170514326845038811e-02
-1.970000896161200332e-03
2.315508299208133766e-02
-9.428152634610753591e-02
3.257131131165964810e-02
-8.502950341949519486e-02
-9.427479319474957320e-02
-6.308835148143115967e-02
-8.510011516100862705e-02
-1.213583532513314023e-01
-1.268542239581470776e-01
-1.208848351938783261e-01
-2.339550811600445146e-02
-7.243486760624211207e-02
-5.578886379811085622e-02
-1.251275299663622866e-02
-2.682717366814442450e-02
3.679217776629830489e-02
1.951365832837201331e-02
7.057597112111209381e-02
1.637916726588365887e-02
2.798466122098951583e-02
5.160631416728333337e-02
-3.320203158111018071e-02
-7.108866579271072572e-02
4.887513435978649290e-02
4.441707173533408076e-02
8.454080856976738806e-03
3.412293178850731717e-02
1.527019739793032162e-02
-9.670232988324310719e-02
-9.060997813543051824e-03
3.653855981404497723e-03
-5.775714489413931452e-02
3.027483481084598110e-02
-1.115689129225383436e-01
-4.769778075418786012e-02
-2.978057716027273163e-02
2.648055807001492828e-03
2.707819890825055413e-03
1.703262961146796359e-02
-5.932090403398990186e-02
-6.926738015688670147e-02
6.849276141764163404e-03
2.206093880181614775e-03
5.890509287188336884e-01
6.159989260564079361e-01
7.722991272650089334e-01
8.138187604226724270e-01
9.199046731778184327e-01
1.037199496373363949e+00
1.100656241699750515e+00
1.201646902965633590e+00
1.331779023790115035e+00
1.367424005829507738e+00
1.410591060856210222e+00
1.560444534252499516e+00
1.362040035526568937e+00
1.540288091884169708e+00
1.475198176056443211e+00
1.491527314453322317e+00
1.578161951121801465e+00
1.468186614751677332e+00
1.372290917182369396e+00
1.349281408221020051e+00
1.219287398162085978e+00
1.164287613534990884e+00
1.101929470104950459e+00
1.028525314076058406e+00
8.190829117828516415e-01
8.310496453024549535e-01
6.975829686130129437e-01
6.412263595829185148e-01
6.558308173389592044e-01
1.862266171235298431e-02
6.524644113331570794e-02
3.032960425442501884e-03
2.932040022573530191e-02
1.002758455364667345e-01
1.950848646511278983e-01
1.686566131014456682e-01
2.581658959934015063e-01
2.244977000864433470e-01
2.962098846088419002e-01
2.925954439100438842e-01
3.543238324891678781e-01
2.548614973309449860e-01
2.810270388066901104e-01
2.526118526370874084e-01
2.408493657397708931e-01
3.130724833253241690e-01
3.345752820415186513e-01
3.037019007802100878e-01
3.480023441062676248e-01
2.114772317292945292e-01
2.143902942194754191e-01
2.065488608366379542e-01
1.466372879448979982e-01
1.828572138738615849e-01
4.890109575765880928e-02
6.420384283830780914e-02
3.499629885317323552e-02
7.310482935582258979e-02
-4.032358242836282108e-02
-1.027579144797750171e-02
-4.595999156419321163e-02
-1.707350174012097765e-01
-6.840457562972201977e-02
-1.730394309056695334e-01
-2.698173392141590687e-01
-3.802436274154867846e-01
-2.530984774644359225e-01
-2.437298667357764015e-01
-1.960389582817324006e-01
-2.602322379388023466e-01
-3.378609662414089887e-01
-2.615758750796279841e-01
-2.594243901133888031e-01
-2.261334279904065325e-01
-2.767321531697148895e-01
-2.403194553564456104e-01
-2.963108677076994879e-01
-2.195530664449560077e-01
-2.494713512999158778e-01
-2.121308480624954640e-01
-2.739842223563560553e-01
-1.720646513438897907e-01
-9.819020872866585092e-02
-3.409380249075243813e-02
-7.838647380206600901e-02
-1.053552783936876625e-01
-8.693971148099062518e-02
-2.791222559966408112e-02
-1.317472097755862173e-02
7.229735089326141256e-03
-5.714374375328900441e-02
5.465736166600276835e-02
-3.807903536918616494e-02
3.864387350479024652e-02
-3.118498065651960360e-03
-7.664589471292682088e-02
2.201138589951935620e-02
1.223526417236630026e-01
-3.686027080313181159e-02
-4.172825378507914740e-02
3.080141445869225697e-02
6.672810416592420135e-02
-1.637335855735686310e-02
-7.370073653471683438e-03
5.643026125647022939e-02
-9.300245682033995639e-03
-2.875248685994117454e-02
-5.496046599455364778e-02
-6.109102308238532203e-02
6.465027555952954086e-02
3.733485184680467722e-02
4.225426208628135782e-02
3.928817380238149720e-02
2.164436942430719019e-03
-6.107534771056732925e-02
3.636698848124930022e-02
5.570645961807202395e-02
-6.374678697013110365e-03
2.598875259194791121e-03
-2.331572738680433299e-02
-4.974712691701707601e-02
6.430308821383684537e-02
9.728410300228142182e-02
4.509866875497031691e-02
-3.399576841571432667e-02
3.307207366405026661e-02
-7.092676676440011485e-02
-9.563685223839858696e-03
7.391697700411946348e-02
2.553340894834393512e-02
-8.033806750299127275e-02
9.037920552493754200e-02
-3.137504463237079932e-02
2.113730586527166194e-02
-7.473412873800492490e-03
2.912880876309730319e-02
-7.661681138906109578e-02
1.866430792647423044e-03
-1.476759778405555348e-02
1.777513021134167863e-03
-1.617745167143755727e-02
-9.298377225718418293e-02
-1.994004531415636064e-02
1.022087293394722263e-01
-5.475401527259968898e-02
9.751107202525063911e-02
-5.797240772488474608e-02
7.045942602424876133e-02
-5.932414803518884505e-02
-3.336705653677764921e-02
7.389752937484821843e-03
-1.838210078679530833e-03
1.339510124787109992e-02
-8.834170564707692630e-02
6.617713364157583322e-02
-9.237277096201226140e-03
-6.499437926566065116e-02
4.823219581229031688e-02
7.226985204393999995e-02
-3.171473111516458221e-02
4.184391406975349059e-02
2.354888536646899955e-02
-4.563744910087275120e-02
-3.631176794638525662e-02
7.895490785582971738e-02
-1.003727493307446025e-02
9.619420105377009256e-02
-8.508331600829865948e-02
1.584685670158996612e-02
8.671226927140748483e-03
8.318071284711928137e-02
-3.076973599781762658e-02
1.719905439867446331e-02
9.051913867981477291e-02
-3.367995169549640316e-02
6.629065570454548140e-03
-2.383984496089925145e-02
-2.597675381289175911e-02
5.487815357468033700e-02
5.383827191322691080e-02
2.540196768395201754e-02
-1.030406078053711441e-02
-3.758539521763470947e-02
-2.519147653255078903e-02
6.345001121184067408e-03
-1.579488709370699059e-02
6.366902630130150120e-02
-1.733764149988802766e-02
-3.148063269722196911e-02
7.309564720596092857e-02
2.068407465619677074e-02
-3.734754571412724627e-02
3.164712955078235329e-02
-6.671031862992141126e-02
-8.454981352378815318e-02
-4.147649827549861751e-02
-8.934604074775412061e-03
3.198304058061938408e-03
-9.629793302915098940e-02
-6.123512015235903910e-02
1.577105811421248768e-02
-3.931692479726234257e-02
-3.489385237705675685e-03
3.218604536119336335e-02
5.623636789346462411e-02
1.778626631128470180e-03
-6.197008202113964831e-03
5.103032556943389031e-02
-5.830192929714243105e-02
-3.978721101843835095e-02
3.886116429647387769e-03
-6.466647579490387987e-02
2.549383629119308589e-02
-2.263642471409712392e-02
-8.591286272213410902e-02
7.077555343747034267e-02
-2.470634606064447958e-02
7.420550303471844245e-02
1.210775670060665679e-02
-5.826016184162204070e-02
2.816876123757797168e-02
-7.041132857869907002e-02
-5.536354567148375067e-02
4.319842278043253825e-02
1.330414856060956053e-01
2.704862744527828516e-02
8.276274507942897943e-03
-6.503340996985569611e-02
-1.241876960957130765e-01
3.156400028489352028e-02
1.702840042665467735e-01
4.652239378630348976e-02
3.043232153624576136e-02
4.868801379627920450e-02
1.699621168069421762e-01
9.175221715170589487e-02
-7.319261356733139379e-02
1.280476960680606013e-01
8.424691293834704608e-02
6.915999091687616285e-02
7.828011096075315756e-02
1.071125743013687792e-01
-6.934436192770229018e-03
2.666931104796582686e-02
1.277139201748147060e-02
-1.242587111831895685e-01
-4.883218344880924100e-02
-2.259866502496992585e-02
-1.393820964900845671e-01
-5.341600957836884628e-02
-5.744156069017651578e-02
-1.344661770008775958e-02
-8.615171148576121485e-02
-1.191817944279266461e-01
-1.008169942273947073e-01
-2.298715713592109494e-02
-1.401135261035698909e-01
-1.730573895724790007e-02
4.545138835435471453e-02
-8.503744639260366056e-02
-1.889085949980079740e-02
-7.063867980220299436e-02
-4.945180279828739756e-02
-2.836934849673511394e-03
-2.384459884805907159e-03
-1.337304796649849414e-01
5.924278928676052214e-02
1.204205034901520421e-02
5.321243472196157676e-02
-1.642244910866580464e-03
-8.249061458476061176e-03
1.349676843695310768e-01
-9.688285447285187313e-02
-3.505696183679003763e-02
-4.537643886894762724e-02
-8.029507283322109834e-02
-1.036842944329525659e-02
6.308235972876517772e-02
1.007756209450572267e-02
1.454254482972592959e-02
5.263389339102025888e-02
3.011178324564460582e-03
2.128643000812672006e-02
-6.181264719878595826e-02
2.948214056004296686e-04
8.324843638966546167e-02
6.276561417051185199e-01
6.339959747859952310e-01
7.977288568703040372e-01
8.119635748264288910e-01
9.123618310927257280e-01
1.020454358609625523e+00
1.051809873102130588e+00
1.165221130467080979e+00
1.257913058712593957e+00
1.259289296914989364e+00
1.394994183230122031e+00
1.391941737128433720e+00
1.441412122564664555e+00
1.387441640837729917e+00
1.537088513233275000e+00
1.530646685287007536e+00
1.480596633192204470e+00
1.492464168375837952e+00
1.321550140761079684e+00
1.253023887853811136e+00
1.291932713291847890e+00
1.092971986703763498e+00
1.028960767193334735e+00
9.403540159528129827e-01
9.017750259275363334e-01
7.973205547126062109e-01
6.557067282488705517e-01
6.704751619051588785e-01
5.317601981978286041e-01
-2.007790091597638077e-03
3.696352214341561832e-02
1.024023793660830961e-01
9.649664885056834229e-02
9.228199537109717243e-02
1.518766738399589256e-01
2.155936912036569009e-01
1.595867360694233905e-01
1.862454023688056848e-01
3.178564192149666012e-01
2.206894372536298832e-01
3.282931421878229061e-01
3.423279343330171698e-01
3.061355808438532833e-01
1.984471009283975684e-01
2.695904468693310352e-01
2.595991238820951619e-01
2.680520695702623413e-01
3.141033301300089620e-01
2.574629662209531045e-01
2.615396675621387557e-01
1.866787286216621267e-01
3.120748944975445527e-01
1.776159134883057156e-01
9.205189288572314388e-02
1.539527507047537824e-01
1.330048834984874639e-01
9.739956156870340637e-03
-5.124827483989825849e-02
-1.139756847073085944e-01
-3.505492030263177017e-02
-1.290919430940777046e-01
-1.530903680862848726e-01
-1.266753315574463412e-01
-2.051822778055987229e-01
-2.872908795007590443e-01
-2.262041527301318633e-01
-2.212374771465546730e-01
-3.454489592208204174e-01
-2.244684669647811215e-01
-1.973091755264750613e-01
-3.685757801143719758e-01
-2.896939994489753922e-01
-3.437165771255570323e-01
-2.487272898827092571e-01
-2.430136271520912938e-01
-2.350426324560836444e-01
-2.618776697100796413e-01
-2.004488356837652585e-01
-3.548420052955493231e-01
-1.702219788943264978e-01
-2.127724966043131882e-01
-7.093014245190885914e-02
-1.029884375428451182e-01
-7.444990738265015728e-02
-1.397713783214543093e-01
-6.796940480725414957e-02
-2.245176884900421100e-04
4.885892653948900599e-02
-2.927994798768661366e-02
3.388340011145931502e-02
6.008067175888416600e-02
-3.763047967972688729e-02
-1.417220328946227660e-02
2.717261689596684598e-02
1.584908870361290134e-02
-6.047888362138928442e-02
-1.398131970361385368e-02
-4.280928773094395262e-02
1.666111603529495111e-02
3.662123185151557742e-02
4.901280828228563036e-02
-5.907201592666958684e-02
-3.782129642511391360e-02
3.072150130187405181e-02
6.231134106759719793e-02
-2.752293805572591720e-02
-3.510649551125912676e-02
5.086901243145538869e-03
1.292530096897421821e-01
-1.579094138492181665e-01
-4.658886228017974397e-03
-2.850386685082914248e-02
6.709246651014709462e-02
2.644261834860210658e-02
-1.777121169857997368e-02
-8.077692358077220858e-02
7.270838412272706552e-02
-7.548011846182212103e-02
-2.896435585317909400e-02
2.260886897955467767e-02
5.933151861474963984e-02
5.234859842660592906e-03
-4.374857399807354115e-03
7.454634998033486670e-02
2.381809053829539273e-03
3.422808379910623200e-02
-1.738224108544570920e-02
1.910875665877148979e-02
-3.150697453176250218e-02
4.601960140995436932e-02
-4.049543772800052316e-02
-4.905646651923417645e-02
3.246279104297337612e-03
1.048501339520866715e-01
2.830545150967040541e-02
2.554133770962477290e-02
-8.063139641788855116e-03
5.047622670352099050e-02
2.287067496471594658e-02
2.015068615464498877e-02
9.934775807640430084e-03
5.653287889964825341e-02
2.018803711334771558e-02
3.917226424050694600e-02
-2.276256453161936213e-02
8.767464939571632289e-04
2.460357518164524304e-02
5.511804723227824859e-02
-6.272021256219763308e-03
-1.299509618460072680e-01
-3.525608860878361867e-02
-8.326624687050377879e-03
-5.221259885416223989e-02
-2.635475681474798437e-02
-4.419393326367657832e-02
7.626758033610933629e-02
5.309813199109567755e-02
-1.430364069051524335e-02
-1.332744514330651622e-02
3.396641243137493021e-02
1.593794403420413161e-02
-2.270419666064838263e-02
1.043783427214587389e-01
2.312050881333475860e-02
1.038064785401895777e-02
4.169368655149960357e-02
7.580481735814970090e-02
1.888953490438931987e-02
1.490680381951517810e-03
5.053214678315005870e-02
-3.302415768617460168e-02
8.918280289792865356e-02
4.008754882547489956e-04
6.889142752514273993e-02
-2.328381663928487302e-03
2.591741683266707286e-02
-1.400029658372404021e-02
9.542882087012977133e-02
-2.573890737592652439e-02
-2.728919147305358325e-02
-3.703715216441144653e-02
1.157155301171739065e-01
-3.835109275960922690e-03
3.603642737545830615e-02
-4.116190999553279162e-02
5.817804806609373769e-02
-1.228983620344945016e-02
-2.390107326907042751e-02
1.906270499234344329e-02
-6.661630822940910190e-02
-6.849873384618934691e-02
5.342314538251067418e-02
-1.567698205833100919e-02
-6.722906954562095361e-02
-6.412555032477156719e-03
3.742488801017986727e-03
-4.056915197157354852e-02
-2.426480950965709954e-02
-4.067022479952489555e-02
1.391980750998493381e-02
-4.781174756852065583e-02
-7.253405780849632445e-02
-9.161112165446987088e-02
-1.023168361691489600e-02
-5.206388491961932985e-02
-1.923766789956724704e-02
-3.420073577485362865e-02
-8.763940093202388093e-02
-3.403890532361299182e-02
-2.631288307131191689e-02
-2.592210057638419038e-02
-1.196547629024031223e-01
-6.066562380034851848e-03
-1.263325462984200842e-02
9.139411065257689593e-02
-6.680611466826602562e-02
-2.524883202520325498e-02
5.882351419821088556e-02
2.023440142160444488e-02
-6.085716333056608029e-02
3.498242989667638830e-02
-6.779200947619008766e-02
3.542483868216902282e-02
3.705442022350982634e-02
4.625570573225867843e-02
1.276741777238142930e-02
-6.533224176501389868e-02
1.475667402041357969e-02
-1.074476004600269929e-01
7.003278269854640303e-03
6.279465500456662963e-02
-4.008866793169474363e-03
1.077386558226149788e-01
1.023630023878586981e-01
8.534628859495052566e-02
1.218595476332866301e-02
1.102108247750536868e-01
5.336660476843702733e-02
7.993325221850258733e-02
1.609702890462856861e-01
-6.248234409995997302e-02
5.545933412291861181e-02
-3.892719712417114925e-02
-9.204402609074976982e-02
-3.159189635342008612e-02
-1.050102626673097284e-01
-4.119437040862608534e-02
-5.783325566753672042e-02
-1.533518872310958847e-01
-3.775403161806505786e-02
-1.067429093429619058e-01
-1.202534374337394102e-01
1.100968782819095049e-04
-5.440724724498305354e-02
-2.782058806725257877e-02
-9.179869202389034921e-02
-3.079884300194957875e-02
8.304379551109791757e-02
-2.675240583674119189e-03
-2.680224595314184555e-02
3.053520414951187492e-02
8.516106800177836167e-03
6.386337588887936421e-03
-4.345251330231170855e-02
-9.030891772605019116e-03
3.063976025035295564e-02
3.640029779242503344e-02
-8.135434565028619447e-02
-2.441876265810008495e-03
1.153405719052587319e-02
-1.262976942642303479e-02
-1.096216168451537559e-03
-1.402910152212848496e-02
-6.461589282966827275e-03
-3.382758365404152368e-02
2.562928895101856952e-02
4.202839072688796529e-02
1.706556656975504729e-03
3.075426308693078939e-02
-5.550416830394912238e-02
-5.257300895263993662e-02
2.516231796218034236e-02
3.085227372159383280e-02
4.268303360464748009e-02
7.575288431146535995e-02
1.694525025547706856e-02
5.728639090821725510e-01
7.683906394518689176e-01
6.551681259008257374e-01
8.137810177028770298e-01
9.172234704323457555e-01
1.066676263196755015e+00
1.143035906918528744e+00
1.361731016584678544e+00
1.286671793062550195e+00
1.293224757813727699e+00
1.401344103657175433e+00
1.469750920493658075e+00
1.509575632576520832e+00
1.525027977282449543e+00
1.419361193877457294e+00
1.480072543727746659e+00
1.439622994452279592e+00
1.457531073947710087e+00
1.300098776369081222e+00
1.339491763540111346e+00
1.216862422650058173e+00
1.183703510262506864e+00
1.063037678967515332e+00
9.948219944463648767e-01
8.953002319166036838e-01
8.155464096732405466e-01
7.052421076422167312e-01
6.298319635139393302e-01
-8.429628046010065323e-03
1.277319059721759020e-01
8.647537449863956782e-02
1.898425925709540107e-01
7.695841429247061993e-02
1.329092551218629958e-01
2.228645906077420524e-01
1.563790643409932457e-01
2.285017579473254679e-01
2.489793753696339096e-01
3.127452841604893008e-01
3.125573674319462869e-01
2.595421787948807291e-01
4.098502732621509548e-01
2.746748040072422570e-01
2.410322781998872343e-01
2.890578352595271072e-01
1.875972802138523021e-01
2.886716530651701751e-01
2.299817983485715478e-01
1.999854209430300123e-01
3.172875374949182814e-01
1.392296120156480133e-01
1.570765056720604402e-01
6.650744747253747868e-02
1.202249314156650373e-01
4.554514682356612665e-02
3.247807205809707942e-03
8.894481689477555519e-02
-7.394785335550445315e-02
1.146673420115899150e-02
-5.230908291743481542e-02
-9.480113909562053187e-02
-1.490413618668847973e-01
-2.257438485882644064e-01
-2.048415615517990007e-01
-2.853373010362091344e-01
-2.447503946825948518e-01
-2.750462874540466340e-01
-2.960221833358043231e-01
-2.460326615389759330e-01
-2.068950271944317854e-01
-2.764399376473492542e-01
-2.508429110054329891e-01
-2.794982484267815592e-01
-3.329594208673519740e-01
-3.315666517121644841e-01
-2.675732509061113928e-01
-2.269781262331040939e-01
-1.382324463185788110e-01
-1.435945691795662560e-01
-2.130900209829843794e-01
-1.876953436687352206e-01
-1.129720279376200398e-01
-2.789011248432823886e-03
-1.012409751883260045e-02
2.873291428223859190e-02
7.262913806082665858e-04
3.574247013819736168e-02
-5.504034740273468229e-02
1.933757392014005816e-02
1.381013622358684412e-01
-4.405346032347037116e-02
-7.476213212493048113e-03
-6.076445160741215240e-03
-5.367743158447148277e-02
1.527943871434534265e-02
1.719211486766265493e-02
3.626496394097980525e-02
-2.083391087252875820e-02
9.990645414985709072e-02
4.071002133589647631e-02
6.134426420667683788e-02
-1.864679345480650674e-02
4.004339871425616204e-02
1.525341919324658263e-02
-6.736695907065734512e-02
9.106680528066976588e-02
2.604935515470014479e-02
4.113425779183038644e-02
-8.392825357171222744e-02
-1.217447278359557426e-02
-3.711204085100818645e-02
-8.355525807147368839e-03
7.952869793252057007e-02
-2.492343029761188988e-02
6.596163380243810770e-02
1.401495590739380848e-02
9.887709990144910588e-02
1.442872524886614286e-02
-2.037899197344812674e-02
-1.885641558750055305e-02
1.089801312310592976e-02
2.504909436585612409e-02
2.235466516401718451e-02
4.171520250954014256e-03
-6.513501177946166842e-02
-3.088571747706614010e-02
-4.213133131064306092e-02
-3.930188363585827849e-02
6.099014079901041163e-02
-6.384844570432039908e-03
7.221013057061781600e-03
-3.450986969980841118e-02
2.205676745336402136e-02
1.023646472744020076e-02
1.406329443990816941e-02
-5.190910658838415737e-02
-1.004891084315060086e-02
1.381612792494315602e-02
-3.406133468549455562e-02
1.769771764618481569e-02
2.064194814311485701e-02
-8.470872687487718614e-03
3.461401473428504100e-02
6.539764343979384553e-02
1.813606824177364796e-02
8.491366188075902266e-03
2.269494245206352817e-02
-7.012487853749642397e-02
7.252735766975088039e-02
-2.360265448060910182e-02
-8.349868038693668282e-02
4.007329631358695632e-02
3.825669910939355489e-02
-3.444756087631242747e-02
-3.043276091120134669e-02
9.742708015454611126e-02
7.735834009545555778e-02
-5.674011131926464183e-03
8.278604408748899135e-02
5.071956219167759322e-02
4.638159241190342036e-02
-4.645850628285897593e-02
2.967013528627555213e-02
-1.024599775212111513e-02
-6.482371056305417933e-02
-1.069720492742364318e-02
-4.427067258095813279e-02
4.935008764528195369e-02
-1.224875300619534570e-02
1.370237300290768484e-02
-1.640261049723356485e-02
-4.791680498910755141e-03
4.893797905782498042e-02
5.567010844211187082e-02
2.495094095814758689e-02
-6.797361064044173638e-03
2.093490346236788306e-03
-2.990185596352584740e-02
-1.704473837668419797e-02
6.681748085611550342e-03
-6.922977594693058290e-02
-1.013830219694746432e-01
7.891014854092101571e-02
2.895461458433109744e-02
3.773354903804643223e-02
4.244421222255960469e-02
7.530486071475335497e-03
3.314291408871438555e-02
-8.541051086798262179e-03
-6.311688715409713435e-02
-4.612447221317044627e-02
-1.265332629174889881e-02
-6.071535304727113808e-02
-3.697072634355301479e-02
-8.954216449962341950e-02
-6.173065129719101929e-02
5.957550226675263627e-02
-9.206877528090794127e-02
-4.741496678698301631e-02
3.193572697508566260e-02
-1.307934121850597986e-01
-1.578253835111551040e-01
-2.367065672523179995e-02
-4.574768686924535199e-02
-1.285123322493456413e-02
-1.037064779606146001e-02
-6.256660998052135381e-02
-1.146807198739195621e-02
-3.275582764265557584e-02
7.061512945985513878e-02
6.168201047935548652e-03
-5.555961513469481056e-02
-7.861959954102189230e-02
6.118732076605303688e-02
5.993004438768565617e-02
2.016362450172451415e-02
-1.589826735315108888e-02
-2.026140168474436717e-02
1.373570776557460175e-02
1.739606430798442543e-02
1.148129432468247835e-01
-5.022134169347589744e-02
5.845428751401310352e-02
-2.885586334206853565e-02
6.556085626751870232e-02
8.182097630398299515e-02
5.802046939417609267e-02
6.819710116576684078e-02
1.008385524802195704e-01
5.055634286086244794e-02
-3.723494982009210863e-02
8.605670951449397033e-02
4.641362063610543487e-03
-5.031990538744340880e-03
1.266906629181778210e-01
5.487166531851828122e-02
1.058526985030895512e-01
9.680679991339954937e-02
2.942861688099186052e-02
6.082455183195054765e-02
1.015562951008128489e-01
-1.877036018523768959e-02
-4.345563254913231699e-02
8.187843817110239397e-02
-6.266425329248750953e-02
-5.758685456509912703e-02
-2.047902442345354845e-01
-1.055124632904490406e-01
-9.372995642093463753e-02
-1.216883076523219559e-01
-1.066310314947674087e-01
-1.003733609798789922e-01
-7.199164288969706060e-02
-1.061325333926694398e-01
-1.049355795414896042e-01
-5.767243600262943193e-02
-1.275579166800452392e-02
4.103631427430797299e-03
2.959931195368036352e-02
-1.594972357083629735e-02
5.497246891696161430e-02
9.596723363267026241e-02
6.794590375493986256e-03
1.123260706912247893e-02
-2.094159240464404589e-02
2.892145631927842131e-02
1.796633674642404005e-02
-1.662325161944660026e-02
1.213251752084560861e-02
3.915970671376332174e-02
2.082587385883067493e-02
1.574661937096877296e-02
-7.465337986618048385e-03
-2.494932553682771559e-02
2.662058087993519201e-02
3.134554112701373046e-02
-1.306266031901498204e-01
6.326856514479438365e-02
4.712066799838637854e-02
-5.589571927829575793e-02
-5.200685907384514778e-02
1.006270864817953442e-02
1.062498977622876838e-02
-2.872080824706875479e-02
4.586905585999410950e-02
1.032377009735668816e-02
5.707763425748797470e-01
7.356651545970719352e-01
9.071137601470403711e-01
8.371317332743822837e-01
9.907263180309109352e-01
1.102067103983155993e+00
1.158976809176226030e+00
1.239346624694480870e+00
1.289036412059819670e+00
1.357382133597629048e+00
1.501830055484792981e+00
1.434746997791668033e+00
1.450148866067247022e+00
1.489419669347730846e+00
1.484078954383817317e+00
1.464511516400797797e+00
1.540044791540234881e+00
1.352074367804873445e+00
1.312936162685814034e+00
1.244390312850349289e+00
1.233471915647145201e+00
1.139751390348757942e+00
1.012105201846876135e+00
1.000371536603343881e+00
9.433511981477936681e-01
7.896339224642072718e-01
7.004155099798649031e-01
5.043428131325154995e-01
7.233145705352338195e-02
8.974621687474979015e-02
1.749500030454663735e-01
1.004983627993851769e-01
6.402221968614925374e-02
1.392235882469287089e-01
1.641104667927337224e-01
2.194389881880643989e-01
2.704962162845008788e-01
2.468155332259214241e-01
2.889324643652686486e-01
2.407934356971182521e-01
2.957611982780142257e-01
2.422950166757782964e-01
3.224268747414538172e-01
2.928518068122765716e-01
2.501834561408430302e-01
3.055963143670583637e-01
2.853121559979400201e-01
1.361342836943531531e-01
1.704830977743205245e-01
2.020852475705391949e-01
1.286396437953923610e-01
1.492052105331160838e-01
1.628846797073268404e-01
6.040602997386772949e-02
7.107426715078320190e-02
3.292401127450574755e-02
-5.163434374500528584e-02
-3.803531873837466548e-03
-2.583691613568240425e-02
-1.010142611817384378e-01
-1.115385255180168511e-01
-1.260366281476902328e-01
-2.113097617325793431e-01
-3.096100641795031527e-01
-1.950653428534868394e-01
-2.293904561242264273e-01
-2.455810830969517577e-01
-2.716582959723947699e-01
-2.544715929281183842e-01
-2.798649924998267702e-01
-2.701624676702321093e-01
-3.533570748319528887e-01
-3.944429910636807479e-01
-3.065032320738139138e-01
-3.221641363140758108e-01
-2.010200822842175272e-01
-2.654840509405709259e-01
-1.801668589039177870e-01
-2.098954199746856930e-01
-1.915466731862003336e-01
-1.622683750972968575e-01
-1.656120955812288575e-01
-1.137849307220268752e-01
-8.414531803520146347e-02
4.313144616717643626e-03
3.473815278101559378e-02
-2.854277550499717542e-02
3.218890307162033254e-02
-9.410396622542459288e-02
1.725055966511112107e-02
-2.600096433954945593e-02
9.845087670805954816e-02
2.453123099490651590e-02
8.772077273903119976e-02
6.066499376786071464e-03
2.132505426470261353e-02
6.454622969057909575e-03
1.344011781735185256e-02
-2.086994628666311719e-02
-7.313680940474603931e-02
7.813543974273926343e-03
3.492907616457498893e-02
2.772222596539361192e-02
-2.801294884687710596e-02
3.959923910684702564e-02
-1.828792620436781036e-02
1.475578286211014223e-02
7.907928753467459437e-02
1.947404406364832211e-02
-3.209053983808612259e-02
-5.046577079480565366e-03
-9.142643838955839472e-03
5.391066829946409254e-03
1.116425748635676424e-02
4.363646820946924521e-02
1.822214508970051647e-02
4.400122327609146122e-02
6.765549925090459660e-02
6.066237572226697815e-03
2.304101675805262685e-03
-3.695235113115583059e-02
-6.683190093661942445e-04
3.198178073142677463e-02
4.600681895027290691e-02
-2.332763745355751796e-03
-2.542980223375674448e-02
-5.185785611427448649e-02
6.065116788407387549e-02
1.264374670816362060e-02
-6.751685809774968239e-02
-5.582373654298179722e-02
-3.730009514594927883e-02
-4.941822531562164306e-02
-1.359207067559763116e-02
6.345612365325425941e-02
4.242232940805327340e-02
4.384914967613942616e-02
7.207525884219541379e-02
-1.257961133445407434e-03
5.088226894304571923e-02
-6.271550744198405025e-02
-3.637541466240325899e-02
-3.200352602591404610e-02
8.264934602643494999e-02
-3.664072455061365835e-02
9.203472125997207154e-02
1.702679243235688533e-02
4.342466051592230869e-02
-3.045136119328457750e-04
-7.754652253126939621e-02
-3.143186247403675221e-02
4.468764290828714479e-03
4.286776390690583138e-02
-9.856268543247681535e-02
3.558547217760359843e-02
-1.365764930657314795e-02
5.927729926416377970e-02
-4.228194597813792616e-02
-8.100401272852057744e-02
2.831393390478818828e-02
5.723319342798060053e-03
-2.150418047626287410e-02
-2.103281202400633307e-02
-6.622282886468774943e-02
-2.728548404967005153e-02
-6.786550116681648592e-02
1.661449455708816775e-02
7.535919235467081201e-02
3.342971959420967115e-02
4.240060396966197076e-02
-3.507565984720346919e-02
-8.398793572260510043e-02
-3.166568850934457779e-02
4.321528527493570526e-02
-2.327917495824262731e-02
-3.605406763486390664e-03
2.019583100725552346e-02
5.800015012299847283e-02
-4.738578060306271322e-02
-1.554270711042952426e-02
1.686719228343830715e-02
2.670060737813077095e-02
-2.141980687208629164e-02
2.373336800419252254e-02
-9.604504133767777924e-03
-2.174801172842801000e-02
8.181931007297327252e-02
5.668375548365359000e-03
-5.328132263534202107e-02
8.547027461192407971e-02
3.477400616737955780e-02
-1.461361946366615018e-02
6.555058611819257475e-02
1.032438252789799268e-02
-1.816374457922786609e-02
7.407063766901732238e-02
-2.776087525809317613e-02
3.794531230105304548e-02
9.843902841892971864e-03
-5.331775979634204021e-02
-1.409819274107346893e-02
2.117319765319470096e-02
-1.119472538344822021e-02
5.015465291371880296e-02
1.448575512034221136e-01
3.579777161004112779e-02
-5.432625600851612863e-02
3.906599287633179263e-02
-9.087095556638279115e-02
4.091388321599342265e-02
2.712813026390742399e-02
2.037801928190052445e-02
-8.509000602439555777e-03
-8.885852880025081960e-03
-5.112837175634919046e-02
-6.289881252375470987e-03
-1.849624255744281780e-04
3.443395717999542943e-02
4.201872179846849464e-02
1.285638083824140222e-02
-3.688769610267194493e-02
-2.953068336631852961e-02
-3.773115681270969302e-02
2.996400909525282624e-02
-2.279836893353107824e-02
-2.766223034835247480e-02
7.618623506060699657e-02
-1.032576673020590974e-02
1.026895223961042936e-01
-4.517007543670228942e-02
1.106525762713646555e-01
5.790735319438436446e-02
8.888484235851841497e-02
1.005153218680448629e-01
3.912731772785718598e-02
1.438051213781654236e-01
1.898668330154851258e-02
1.491414598225013488e-01
1.152658685907195085e-01
1.039337943222779503e-01
2.777293853701414197e-02
9.791998028976237056e-02
9.060112296985412331e-03
7.474262236564960943e-03
2.578648801641280491e-02
-8.934903387672347985e-02
-9.333750765160390983e-02
-1.668276032597626191e-01
-1.066098707858978561e-01
-9.128551563329226348e-02
3.978777628428895041e-03
-1.376150777113264445e-01
-4.321752797861162093e-02
-1.138593786777345046e-01
-2.421817906219445038e-02
1.070436005870614715e-02
-3.676574018404149546e-02
1.152179323437429598e-01
-8.317633040956541601e-03
6.043501799601102425e-02
2.494637167127537747e-02
-2.552395289127359565e-02
-4.707684490872979244e-02
-6.300155147414542370e-03
-2.462304328526972175e-02
4.694764508630040051e-02
1.412645135877453736e-03
1.612154969038341254e-02
3.873267521961432092e-02
1.540194244241674219e-02
1.063811848917711050e-02
-8.481851432483421271e-02
-1.939177895978115573e-02
-4.242591889233306157e-02
-2.113375914553471124e-02
2.998955507122746944e-02
-3.906151240299721161e-02
1.073066870920399291e-01
3.666354387931516218e-02
7.960510430861775233e-02
4.520033730540175959e-02
5.024983164151923185e-03
1.201914722153850541e-02
4.952205334971679839e-04
1.022494623829574636e-02
5.152422660112300212e-01
7.282296057143742285e-01
7.303548258545837779e-01
8.168472111110096634e-01
8.731672856951718797e-01
1.060560726041613222e+00
1.070698321925672714e+00
1.131009829015671819e+00
1.220719215258490919e+00
1.277342996634552641e+00
1.389994668095883013e+00
1.446574641897259372e+00
1.514674139845296752e+00
1.477975744668330815e+00
1.484673275565959072e+00
1.523075226537980997e+00
1.428016898425954695e+00
1.431096452265039343e+00
1.313870768535405409e+00
1.261459841574144036e+00
1.222988945808686223e+00
1.093643357585332376e+00
1.079553321449446157e+00
1.094979243424444526e+00
8.960443270059135212e-01
7.411897591747289571e-01
7.452122224189889899e-01
6.647099486216476727e-01
5.671767045856548339e-01
-6.253783118351917414e-03
5.384233035365380143e-02
2.828097405719339624e-02
1.053858568958666586e-01
6.365152861659317818e-02
2.140169112384661954e-01
1.786073001814660888e-01
2.044953927940554583e-01
2.105032694540654448e-01
2.613577117575502373e-01
2.670338399837287047e-01
3.356507224321258476e-01
3.038420852145326534e-01
2.795720369211561196e-01
3.180917826353196198e-01
2.663322820589100193e-01
2.980745638798070751e-01
3.358504387476048958e-01
1.997820646537554756e-01
1.944957843791278174e-01
2.351218185602414745e-01
1.059165926381937101e-01
1.697443438395698223e-01
1.672764647705053120e-01
7.079585640370822386e-02
3.885272523154916641e-02
1.073454199586184876e-01
5.426664815023159866e-02
6.521558857192380487e-02
-5.988607212261269630e-02
-8.019145658777743213e-02
-1.067080288328804694e-01
-2.185531686883949720e-01
-1.975572760130749894e-01
-1.334984562334057268e-01
-1.930299684586573306e-01
-2.370447139029736860e-01
-2.499047195450616599e-01
-3.228908622055934874e-01
-2.482654139917367109e-01
-3.221378830236915070e-01
-3.515287301579926860e-01
-2.390603583723636405e-01
-2.918118017479838788e-01
-2.242264901789062792e-01
-2.822851412137790117e-01
-2.370869265669010850e-01
-2.986392292189115061e-01
-3.006010212935967818e-01
-2.366067321259820166e-01
-1.794938930211027739e-01
-1.816722547946713895e-01
-1.463811796575942015e-01
-1.376829598385761466e-01
-1.310368797025246446e-01
-1.838870717483879688e-02
-4.816999877640412708e-02
-1.038886027869306838e-01
4.695823407887284723e-02
-3.778907274820941797e-02
-5.738996028469156574e-02
-2.210188490920529658e-02
-9.668272169063241162e-02
-2.759034535819384834e-02
5.473776923055767574e-02
2.385049890300293407e-02
1.141357677674833312e-03
6.128880696999773614e-02
-5.570668748582537078e-03
2.432344884729240736e-03
4.022729599307504206e-02
-3.005833949591401114e-02
4.357213620603575532e-02
-5.102654273214895370e-02
-2.676965135518751329e-02
-7.416726058003146604e-02
-1.064210590983782553e-02
8.060709440539653992e-02
2.654046749670115404e-02
5.526991291663288508e-02
-6.384635225797416491e-02
3.910969811156229936e-02
6.868496521186551185e-02
4.278093765004994248e-02
-5.918390283232236038e-02
4.557234780020337495e-02
-1.065133574417818398e-02
-1.617971233479624862e-02
-6.499266651129150668e-03
5.932323479335988026e-02
1.822621462007911405e-02
3.411593058099223613e-02
-2.293325435443427721e-02
1.465982293860688263e-02
5.966153653070338514e-02
-2.511874946362803451e-02
-4.030624078269298000e-02
4.732575334252488164e-02
5.009821762980081611e-02
-2.333998527046730886e-02
7.408621606267332127e-02
-4.422872719750962911e-02
2.160639237848050245e-02
6.125498451266562366e-03
3.131900201635049591e-02
1.279452733275128484e-01
3.343360375087791464e-02
-8.733033823877169033e-03
-1.908338846575077493e-03
2.224833313107203205e-03
9.880999832694020713e-02
-3.159474643655827645e-03
9.014176010735033134e-03
4.932970188528452982e-02
1.513708613442932109e-02
-8.189278002390004349e-03
-1.657592858350559126e-02
1.549327941221884386e-01
1.024667641272477836e-01
-8.181683039045047068e-02
-5.353643458942115851e-02
-3.550379875349863549e-03
2.055305965749785330e-02
1.107292430103176822e-01
1.756593433006788454e-02
-1.982592044630150652e-02
1.365777896587152575e-02
4.014138275393871330e-02
-9.899302119386015411e-03
-4.857114575258112549e-02
-1.386720635339127629e-02
-4.319356649403872234e-02
2.950741407904532154e-02
-2.972997149809463932e-02
3.804037445536861267e-02
-9.378857901771503469e-02
-3.165233267147018331e-02
-8.649910777721676880e-02
6.223544371295575139e-02
-6.751327666106858583e-02
7.973321333141715483e-02
8.246220475876121780e-03
-6.292125214839308645e-02
3.688072243754015461e-02
-4.447568481829638348e-02
1.592326636362231124e-02
-5.294067119049677972e-02
-5.941258482196624252e-02
1.546561835033920598e-02
4.034232452120649348e-02
-2.753021447159849713e-02
1.034938401430907373e-01
-1.497004581468029498e-02
-1.498894667497221479e-02
3.996126571526445459e-02
1.452201071312977931e-02
-7.265886516968543540e-02
-2.608329713394629337e-02
1.231352540455494388e-01
-4.292349717206515522e-03
1.032859475645669795e-01
4.240544519850922289e-02
5.715895373722926914e-02
1.963648346484958215e-02
-1.005966141169190552e-02
-4.581160595835780808e-02
1.306643529928578490e-02
-4.044147612602684398e-03
2.243949222145754166e-02
-6.063287620247023550e-03
7.470600314027220357e-02
-5.426632230391751494e-02
6.982162137152667092e-02
7.269256859312828167e-02
-1.062066371047625107e-01
-6.601485841920663733e-02
-2.473893488520097217e-02
3.729521495566067574e-02
1.166826196905335622e-01
5.059796011072265065e-02
-8.152523727645707985e-02
-1.845099413585425674e-03
9.812190510578751301e-03
1.049632158108231711e-02
-7.527146511363161374e-02
-1.322272194467699960e-03
1.587495857375098227e-02
3.604977758300396268e-02
3.505084722319665169e-02
5.356394145975754140e-02
-3.075473521082530692e-02
-4.744587074757805611e-02
7.748836827935190463e-02
1.688398184729651350e-02
-3.430290303580976058e-02
-6.293098229091148577e-02
-1.300187042020853161e-02
-3.614405890222082904e-03
6.429052761642016500e-02
-5.226006933847894033e-03
2.724330681147438607e-02
5.623055519070496722e-03
7.428979710298744266e-02
1.065219895077984397e-01
3.083456828097482644e-02
7.564129316701732886e-02
2.147832014928934830e-01
2.110712428971655008e-01
9.632003289715640459e-03
3.440543986558719514e-02
6.454289705501155272e-02
-3.804859479996404448e-03
1.061716167284812440e-01
-1.704882048588363813e-02
1.073495849857397377e-01
-4.296065171009214034e-02
-9.756193153222922354e-02
-2.120853645821595829e-02
-9.820228553732363030e-02
-1.323068073355915253e-01
-7.332519650584551352e-02
-1.576134209181507817e-01
9.485657312119102902e-03
-6.106087377735221200e-02
-9.055828673521504335e-03
-4.685312952297947253e-02
-8.651261894730730151e-02
-9.084635970605450805e-02
-3.025540569779324243e-02
-5.029824192424804837e-03
6.403890957321020649e-02
-5.052903959230425207e-02
-4.109641407876298003e-02
5.974692376777041014e-02
4.525873811421526893e-02
-1.045012219570296084e-03
7.089919511400837038e-02
1.020654663249156470e-02
-4.105858843777942385e-02
2.806923466683423907e-02
-7.926819891887021408e-02
-4.403858460796347685e-02
-1.381942573575602011e-02
-4.490854512626206441e-02
-8.711291721447780856e-02
-8.072846715837583842e-02
-1.280524743649669520e-02
6.837522165419897789e-04
-9.932957119924130593e-03
5.404483260788755378e-02
6.368367876670360216e-03
-6.423249340036410460e-02
5.728255736572510776e-02
2.278463004893507837e-02
7.233215667789080761e-02
3.870638627831968909e-02
-1.167344488348427949e-03
5.647417426671169638e-01
6.628740881677229746e-01
6.670218035838665349e-01
8.244481209524057164e-01
9.911434244711117003e-01
1.019772166996358642e+00
1.115461633553191279e+00
1.251422211759508851e+00
1.221108384551589543e+00
1.442097932137985872e+00
1.428168978179106041e+00
1.431528473232944076e+00
1.390417379342525850e+00
1.535490370865914223e+00
1.512744712892775123e+00
1.518784027560584393e+00
1.470009518927507752e+00
1.395638345301178251e+00
1.368020392717432587e+00
1.229756279979580702e+00
1.227483682515727148e+00
1.156930544994295484e+00
1.062103934709597519e+00
8.879172369278707233e-01
8.725490446894746954e-01
7.997730422053446198e-01
6.450783978958906095e-01
6.474425602673679059e-01
5.809694989586232650e-01
-3.339012693025149303e-02
1.192970693349852535e-01
1.455227568458610232e-01
8.966709155236429751e-02
2.067699265787223406e-01
1.280529007566373334e-01
1.616218161867301606e-01
2.209866407432649338e-01
1.699691845298693660e-01
3.321848083949059949e-01
3.524389589702683900e-01
3.449905288825317884e-01
3.448772324771775533e-01
3.362623319213027817e-01
2.940600861948491351e-01
3.597783800801376275e-01
2.595668715085888145e-01
3.011203918383631994e-01
2.449818396909111407e-01
2.209842336242115179e-01
2.537053346532779918e-01
1.918992615899151044e-01
1.728086451607629970e-01
1.782295587706576590e-01
1.992252486877572615e-01
1.551639704685005283e-02
5.797562303015296736e-02
-2.446439990785142723e-02
-1.016736575056486902e-01
-7.471030083900334628e-02
-8.544473305749701597e-02
-1.590746856701542589e-01
-1.390137771325453964e-01
-1.858588389112067474e-01
-1.724175825128254902e-01
-2.368596598366333184e-01
-1.790300137387340618e-01
-2.126815746499049753e-01
-2.700193282415340734e-01
-2.647562210558041529e-01
-3.653238884265785358e-01
-2.966608600291863462e-01
-2.352686362410099374e-01
-3.529997648579011882e-01
-2.828942585348513949e-01
-2.718528012080538847e-01
-2.945987385472105258e-01
-2.999370160363090676e-01
-2.261672188560165664e-01
-2.327688212175918758e-01
-9.313871358257069799e-02
-1.523961013893010696e-01
-1.167878903550076397e-01
-8.871969505817317581e-02
-1.018067851362408210e-01
-4.276182759731937677e-02
1.659452606360179230e-02
5.511946746760355842e-02
-1.816089181588552079e-02
4.878883862225025236e-02
-7.525686478135330988e-03
6.353348830523357360e-02
1.603194307495666923e-02
3.800299330441977985e-02
9.258794598978908885e-02
-3.463038252004698586e-02
6.123922761497365558e-03
3.709893882192841219e-02
-9.201268851078896020e-04
-1.713913584125957221e-02
6.546434032639310285e-02
-4.771569458560692700e-02
3.666320203418368256e-02
-2.715821046472294970e-03
2.416030790570017350e-02
-9.749927572852271074e-03
-4.885398423718359529e-02
-1.622916206975533182e-02
6.482189209857612544e-02
1.829012555077600202e-02
6.156730515103830959e-02
-5.274048101568267616e-02
9.209019777635314360e-03
1.477706439932797988e-02
3.735337011531367907e-02
-3.202430802408234856e-02
-5.650124820938923209e-02
-8.328809467234682407e-02
-8.789364176847802579e-02
3.694771518884883144e-02
-1.074892789036201862e-02
2.899660925928360111e-02
4.070764060308055404e-02
4.608487820217418290e-02
6.523742988902898887e-02
7.103613462185607436e-03
-7.760196656912733866e-03
-3.456756881520574309e-02
-4.709234930469456334e-03
7.509766429957127898e-02
1.479315918976309256e-02
1.362953831286640516e-03
7.298240456721910574e-02
3.286910798207857282e-02
-8.348668634880327842e-04
-7.998564336306942038e-03
-2.335224010016487620e-02
-6.009677124673706849e-02
-1.078084410345624966e-01
-8.965974602657872383e-02
-1.614529928664543493e-02
-4.095885677522811269e-02
4.438095113171960232e-02
-7.224850063949342371e-02
8.593942084684809413e-02
-3.060751717341634454e-02
2.837516877560866332e-02
4.394995983157157227e-02
5.040023921707706411e-02
1.758378466456071709e-02
-1.085891513914278260e-02
3.947734789674803291e-02
2.780701183338579394e-02
2.138778294111062794e-02
-7.998085751958724718e-03
3.339501010802393977e-02
-1.960874869380539384e-02
1.132030147094716527e-01
-1.135923337481520301e-02
8.516045821258386161e-02
5.942693450422939505e-02
-1.095549080113260160e-01
-9.566360499925755101e-02
6.817595100045276135e-02
8.777894601039221492e-03
-4.451121660647586187e-02
-9.093104449565890535e-02
-4.514526612985408222e-02
-3.330890466748450546e-02
-1.181780132234929413e-02
-1.629588466446011893e-02
2.803027962004782294e-03
1.542271839203966655e-02
4.369812970413503028e-02
-2.719334556861259869e-02
-5.231294207754776104e-03
-5.579119236331508275e-02
-5.990080407813039298e-02
4.042812632846931598e-02
5.811543916937848310e-03
3.704740051339702051e-02
-3.743067472033289461e-02
-5.537831032819856558e-02
-4.100376326323890847e-02
-2.849533037273782707e-04
-2.814596906754610744e-02
1.267203745049296781e-01
2.341877472030512095e-02
5.037851753827047446e-02
-1.493835723646245832e-02
3.931247989446517987e-02
6.206067242647239635e-02
-6.898831552065143313e-02
2.412422089313499829e-02
3.492605806919300837e-02
-3.530182022933606167e-02
-2.226867788197886902e-02
9.247720034464347247e-03
2.653766028432538986e-03
-3.919919077570133137e-02
-7.238619240724596463e-03
-1.334788662777373902e-02
-8.041381734818759883e-03
-2.180734597702347136e-02
3.502220239695246623e-02
4.343930253431244753e-02
-7.180412391924301252e-02
-2.774355167276211856e-02
-5.943385669496523832e-02
-1.820064583135810616e-03
-9.386187279833563268e-03
-1.868351173113380267e-02
3.955988882635642911e-02
9.262810942691232508e-02
-7.556643402051453628e-02
-5.021349122318351926e-02
-2.516370485369068960e-02
1.393595700651663327e-01
9.657690775283403473e-03
-1.490218583440229561e-02
3.683095425016926980e-03
2.954578457702168939e-03
3.427011375064383664e-02
3.809640997717508859e-02
-1.945573084506253825e-02
-1.161990292234098970e-02
2.040322268244318740e-02
-5.023926614922074457e-02
-2.041099926433494888e-02
-9.306113838664348270e-02
8.464705966520905123e-02
1.050225119529066831e-01
8.357411591013105823e-02
1.191783327149708860e-01
2.236181493288892652e-02
1.358853922143828385e-01
9.784274422865067711e-02
1.480154278600125661e-01
7.144661583459363530e-02
-6.533171152509203994e-03
9.403431664668689127e-02
2.758795075943283603e-02
-2.242791566443944062e-02
5.618311965954558840e-02
1.050949458597075226e-02
5.198592929684331398e-02
-7.757274642490145922e-02
-1.885253876266473894e-02
-3.335086478068198523e-02
-1.456764714572403863e-01
-1.666057453268059985e-01
-1.040499938237368083e-01
-1.140785257782500478e-01
-1.143681921119857892e-01
-1.034658021201936839e-01
-3.220262227561677959e-02
-3.582619618992931299e-02
-4.455925892843186353e-02
8.401873282504003504e-02
1.361629768852948841e-01
-6.842342974581643034e-02
-2.160491646709631827e-02
2.221225689743781036e-03
9.900719123994139448e-02
5.922133847697067270e-04
3.184702336086429886e-02
-5.309038603143798746e-02
6.518168536727501905e-02
-1.184424589049306448e-02
-3.411972967975401144e-02
-3.024747481878621927e-02
-2.772296540674427240e-02
4.455459417994108579e-02
-2.176660830047844747e-02
1.624629069012548804e-02
-4.573442205265629626e-03
7.558126830835897036e-02
-3.962126201315244178e-02
6.550014513914183267e-02
1.008370028085518177e-01
-7.775237366573690967e-02
-8.348961121708493860e-02
6.658310581655121907e-02
-5.085159549568615128e-03
1.114931042904555858e-02
-6.390959734005459587e-03
-2.275179930912986370e-02
6.743136040081874061e-01
5.835956837564700850e-01
7.824343587994492255e-01
7.770195345865390513e-01
9.099544204961307337e-01
1.029524210177284349e+00
1.159054058807420740e+00
1.182522710119984000e+00
1.238992303097573133e+00
1.416638976226247015e+00
1.443199875247247910e+00
1.483692220700363551e+00
1.463663076789416984e+00
1.483770085134890060e+00
1.511367877637840307e+00
1.514272687268740425e+00
1.438449566494763188e+00
1.412113925080400900e+00
1.392284427682398462e+00
1.248082645464751783e+00
1.234851616573934496e+00
1.104594398488390805e+00
1.012006260216011810e+00
9.755357240160296151e-01
7.938763318553808679e-01
7.737816047693977239e-01
6.956348497999595981e-01
6.213166387892693487e-01
5.253843311757951801e-02
3.556447035788522920e-02
1.490533362931190653e-01
1.051350014053992754e-01
1.600184603368988712e-01
2.179015306511238870e-01
1.786747778544481857e-01
1.855985153286933698e-01
2.073567028276912250e-01
2.728583429358159007e-01
2.208849765774173468e-01
3.083897575684382275e-01
2.362637381449761154e-01
2.910931779075178749e-01
3.478159367149747938e-01
2.589858289997572505e-01
2.577742061469218693e-01
3.204753090305320073e-01
2.479133373366831650e-01
1.728923970116708619e-01
2.453380082899466186e-01
2.167737544111603687e-01
1.428044761164564691e-01
1.744736621147294497e-01
1.890478174773552733e-01
6.734804531094902569e-02
3.584716231352088472e-02
5.396912791310341795e-02
-8.823187963070768663e-03
5.644496026642080444e-02
-1.303152537915381326e-01
-7.517341828954489380e-02
-1.344436917443209145e-01
-1.181132101969786657e-01
-2.254138407948140799e-01
-1.670180027594401484e-01
-1.682693340157873640e-01
-2.211337777238820690e-01
-2.499620543656710658e-01
-2.594865116579976316e-01
-1.964321322810345660e-01
-3.893604709784216911e-01
-3.176495632343225850e-01
-3.225124514692971900e-01
-2.785970241740050035e-01
-2.530041727042132704e-01
-1.875415912254337902e-01
-2.170863682511883219e-01
-3.068539637295113476e-01
-2.266098411011623903e-01
-1.698269239065099412e-01
-1.909686555321563617e-01
-1.403237308499640512e-01
-2.241055012731130724e-01
-1.106708728123747820e-01
-1.401820177994665684e-01
-7.286282010545748478e-02
2.940136166403514717e-02
2.895833857539344483e-02
-1.923282782344799130e-02
-3.087860704907996467e-02
3.016936762512817047e-02
-5.143095084257592875e-02
2.413786090336460331e-03
3.220938906277353436e-02
3.723109059660036774e-02
5.153790136565702951e-02
-2.751333666912637171e-02
-7.277813881338136837e-02
-5.495088156659989898e-02
-3.316134673463917108e-03
-2.179693892372472006e-02
7.223962889187438008e-02
-1.787779612480735331e-02
2.227030357690150050e-02
1.053850550568433686e-01
-1.144308002966748505e-01
4.590085826364639215e-02
-2.337834639136452883e-02
-3.669241248961319091e-02
-3.060988449077644072e-02
3.941501651873988155e-02
-5.991382331752867496e-02
5.645256109560462671e-03
-6.946571984964437785e-02
2.316035226903169486e-02
-4.857155345919889067e-02
3.392173770473451422e-02
3.524833754228794136e-02
8.098594405572429045e-02
-5.754192899418230506e-02
2.628378383807285570e-02
-5.487873618440646667e-02
3.390339801510742351e-02
-1.633984929422233404e-02
-3.475703296823955124e-02
3.465339865881281872e-02
7.949906760955671378e-03
-1.292405336233813130e-02
-1.088645175476685989e-01
-5.144158548673419956e-02
-8.103215222495560588e-02
2.931925730968867622e-03
-3.616576090440003916e-02
-7.238158152016566614e-03
9.774502101994174408e-03
1.755002621812296179e-03
1.395513768188470782e-02
-5.592799538286052918e-02
-5.032155709163602109e-02
6.624661911283530324e-02
-2.114263235166381066e-02
6.764793953415679240e-02
-1.276224500311908538e-01
-1.617366168623610156e-02
2.517405862983506173e-02
1.352510321574760567e-02
5.109286363929937957e-02
8.098757948160922870e-03
5.619887280484636011e-02
4.838065752568150579e-02
-3.776374323551889844e-02
6.534870682166261935e-02
-7.039925306654377934e-02
6.692805046603016172e-02
-2.229544664629319432e-03
9.901510310719577324e-02
2.314745400904419381e-02
-9.999331284937472419e-02
-4.836749448061844481e-02
-2.252830760394522458e-02
2.706788837450021037e-02
2.475405666760680315e-02
-1.061728934436258903e-02
1.261770729299245379e-02
-6.091359859455838799e-02
2.586492099440620626e-02
3.529762393087214345e-02
4.185916933994585087e-02
-5.447315715843625838e-02
3.920821280973577072e-02
1.023259060063072242e-03
-5.661301048528682989e-02
-2.145754739643553066e-02
-3.430491813210335972e-02
-5.930830006122844722e-02
1.350955613987954787e-02
2.574363309682210083e-02
-9.299960105954835354e-02
-1.005949149350785776e-01
-3.422310991193575763e-02
5.752134790964853750e-02
9.239980291742155849e-02
7.047357404227892752e-02
5.346345089626444030e-03
7.401459654615615003e-02
1.706782982828290371e-02
6.110675662410711140e-02
1.054773228000227027e-02
2.555419256016762397e-02
6.519559856617755667e-02
-3.557492166670350037e-02
-2.939368004215372338e-03
1.280576479202384481e-02
2.155089532465659374e-02
4.690154067842539944e-03
-2.091315207762682246e-02
8.920689530570657944e-02
9.769137630179575149e-02
2.785767102232441714e-02
-5.420308820683780726e-02
5.971657822589421238e-02
2.083507904506180786e-02
7.787801478844631926e-03
-3.583919003988803725e-02
7.367652477403456579e-02
-8.902899684176408812e-03
6.142415995757046290e-03
-2.948083544577517756e-02
-5.741698519776168574e-02
-6.613821894530372281e-02
4.882151904161960432e-02
6.242568269971392886e-02
1.029005418732584776e-01
3.681157128200984036e-02
1.563364316898500569e-02
-5.333971215252756443e-02
-5.406013521033810332e-02
-8.196861928155371735e-03
5.054360974697172382e-02
9.675498162486345644e-02
1.352216150640027648e-01
1.583591962084874086e-02
2.051281833544986791e-02
-3.986531476027551507e-02
-7.592056414634798522e-02
9.555696376632137612e-02
5.111733515619872048e-02
1.097657599496030534e-01
-2.763275346998232684e-02
9.468855926705890824e-03
4.937676706010282052e-02
3.126722775770598983e-02
8.952540103755157741e-02
1.444627311207150877e-01
9.728501848470763602e-02
1.111963688266244255e-01
1.597071050484915877e-01
8.957936236013838704e-02
9.596498843633458065e-02
1.245888370470172313e-01
9.131227825522353347e-02
-9.059706229494507435e-03
3.358056917803233649e-02
2.195841498775315606e-02
-5.148351966282602166e-02
-1.298912694156225678e-01
-9.923809841618633221e-02
-6.570489445557024799e-02
-1.340611666356021081e-01
-9.720098147593572713e-02
-6.556898203456272556e-02
-8.741754763808584627e-02
8.257465570024644097e-03
-3.239992687973736879e-02
-4.475728445246157650e-02
-3.273681750555173381e-02
-9.173304550419746073e-02
1.354120128613895552e-02
6.607906255784283707e-03
7.797474555656863648e-02
-9.101283354265040856e-03
-2.016259476133307540e-02
-3.147703990559783897e-03
-1.085648469633887503e-02
-4.932858247019489273e-02
7.581806596623357451e-03
6.357737165943387614e-02
-6.633568038222345531e-02
-7.287954274500479945e-02
1.146893480393838469e-02
3.684006082476286303e-02
-5.530591155128414954e-02
7.605813817369778962e-03
4.293470701458451666e-02
1.588969725970242400e-02
3.208272151656445942e-02
7.959785656546983917e-03
-8.340239512545694067e-02
-1.238814262956321709e-02
6.392547594090151886e-02
2.790981971341796597e-02
-1.017113101312603907e-01
7.155375375261786852e-02
-2.617513963416753450e-02
5.250880581576139461e-02
9.271538181153128610e-02
5.598972436012913390e-01
7.208091169839554446e-01
7.265862087243885048e-01
8.671906396695063801e-01
9.392812436991285763e-01
1.013133561303973806e+00
1.005901626155781159e+00
1.144295838182086911e+00
1.248346211036391429e+00
1.265965311475313992e+00
1.328471073009605874e+00
1.453950260266039241e+00
1.473090686543517824e+00
1.572371366200611353e+00
1.421043751029443802e+00
1.591985323041039013e+00
1.389557400564504386e+00
1.380791670029290152e+00
1.422357336989811483e+00
1.383835025062095880e+00
1.247252440777494531e+00
1.207966360948569573e+00
1.116015219648640366e+00
9.676567901550896522e-01
8.929790444172027719e-01
8.529181644704358911e-01
8.016217747640542735e-01
6.737695593956656293e-01
5.283032963094483891e-01
3.373345679235738304e-02
1.083539391046614564e-01
1.071483350168068310e-01
1.938572914359113497e-01
6.834833139964399673e-02
1.797202959671632960e-01
2.565994693469629273e-01
2.736304767044135389e-01
1.748688390394803061e-01
2.454627719519525963e-01
2.522212153175552030e-01
2.904613093285667302e-01
3.287672247876941012e-01
4.122102746502679937e-01
3.275884529870585760e-01
3.634150833257047131e-01
3.839259173854039919e-01
2.753330715901938786e-01
2.541544653595400605e-01
3.071384285608098064e-01
2.896974314651385995e-01
2.292385984370182150e-01
1.446859224437472280e-01
1.986560854314521618e-01
1.899988755608358615e-01
5.889736893012094410e-02
9.219440225948521972e-02
8.202129822492160161e-02
3.297252357724258370e-02
-2.960122019435506430e-02
-9.850122891186757768e-02
-1.072545616032015287e-01
-1.617487748422394844e-01
-1.354219504267990537e-01
-1.950630902279144319e-01
-2.670712216196916566e-01
-3.622185146526752941e-01
-2.472228973792408580e-01
-2.276819177861613697e-01
-3.354963629422411664e-01
-3.032617804347692014e-01
-2.662967360210499179e-01
-2.277072673945672032e-01
-2.781488450842191651e-01
-3.698977667966543148e-01
-2.921106759324141877e-01
-2.457404602380807435e-01
-2.477001528518786300e-01
-2.659856879234673843e-01
-7.734856210733037640e-02
-2.246179872905607333e-01
-2.262212622105696791e-01
-1.249175991178777673e-01
-1.512439357223062664e-01
-2.832939188438116096e-02
1.831551219065013364e-02
5.205455042441572977e-02
3.251899882316150459e-02
-5.292253952227890523e-02
2.678818421926762450e-02
-2.680078523110543051e-02
1.519952986937716556e-02
-3.869641285639092293e-02
-1.129138800452629821e-01
-7.634304895457771044e-03
-2.148350510521994383e-02
6.876346872269377408e-02
5.154536354237218565e-02
-9.322776151452916160e-02
-5.562690621114046302e-02
-5.005241925223489347e-02
2.838187929653356034e-02
1.222173133035809808e-02
-7.673150452882772365e-02
-7.221129642636603396e-03
1.455584180879838409e-02
-8.736830636228774816e-02
5.935237173375199071e-02
-4.951002483529767795e-02
5.643262898023099217e-02
4.923510502432598690e-02
-7.745227350609387718e-02
-2.630670480420220503e-02
7.323608884210223990e-02
3.913665629286162441e-03
-1.000214793496858462e-02
9.038791428823766960e-02
-1.541796964558738575e-02
4.044064103145385974e-02
3.469763666812761532e-03
-8.024136365188367466e-04
1.781857777559283512e-02
3.154064852490538751e-02
8.302218428165369923e-02
-3.511275393629552030e-03
1.115945809663843914e-02
8.842441300147134420e-02
7.700154175619469687e-02
-7.067428983515820773e-02
-6.720642533054095591e-02
5.323672501074858121e-02
2.689734307385661938e-02
3.961434347304493286e-02
2.569807146293132116e-02
-4.572830757709611671e-02
1.127987413897898333e-02
5.747303496343748874e-02
-5.059378367857310377e-02
3.739689267866155159e-02
-2.845526727827723049e-02
-1.014127068563925316e-01
2.477412662874780430e-02
-6.134817162827591042e-02
-2.566192665287794772e-02
1.703527531643766807e-03
6.778291598277616514e-02
-1.377699698261845287e-03
3.939642231527758220e-02
-2.452137465216584766e-02
-6.131504631943300067e-03
1.304935962833112528e-01
-5.718585241076620806e-02
-6.677512995153599140e-02
-2.379897267555361462e-02
4.908947480666100982e-03
1.254156425846120887e-02
3.056258507471160818e-02
-2.885799087386949069e-02
2.516651665292590767e-02
1.045887183043443386e-01
-2.859820314778822870e-02
3.042469976556261280e-02
-1.875430000256049848e-02
-2.652801241426386292e-02
9.629474976227328509e-02
2.784739086059430380e-02
-7.470777088804956070e-03
-3.574129770786475813e-02
-9.881793820804568237e-03
-1.456661738959834362e-02
7.940442407644587863e-02
-3.501593766372548822e-02
9.226526203760635619e-03
-5.023928308282613747e-02
2.544182945836307580e-02
3.014000504697111546e-04
-8.267934104219155922e-02
1.211546689238944888e-02
-3.843780731251337374e-02
-1.701881192959769570e-02
-7.251809638924057444e-02
1.970462607141757524e-03
-2.921552142164237156e-02
9.443624668494352004e-02
4.396161841768386064e-02
1.029207939443123332e-01
8.367920292336292198e-02
-1.111131595495318605e-02
1.008350656904965018e-02
-7.295443052484609781e-02
8.159967749314850360e-02
1.687494980216163940e-02
-1.255824267054051792e-02
2.138136474957205366e-02
6.041751863546716145e-02
5.394782299652578668e-03
-3.622543474281238185e-03
-3.414697337286708850e-02
-1.133824510804329333e-02
1.182795434634022202e-01
3.770726300944964027e-02
4.580955464713162145e-02
-2.397370429104819789e-02
-4.975033775560982335e-02
1.953032751522564003e-02
8.519247523191614269e-02
1.169514842300888591e-01
4.356932992153597639e-02
-7.258296803129775376e-02
1.070172529352789587e-01
2.592755467856237145e-02
4.161061940954650235e-02
-1.661703177569277476e-02
-7.970142003257711660e-02
-3.919520787941651457e-02
8.376024866438014360e-03
-3.470942251020946862e-02
-1.188828385274849414e-03
-4.402978002970350802e-02
3.753712191027114287e-02
3.664473746096257728e-02
-1.989283810912067380e-02
-1.675351043315312111e-03
-1.028152277709278029e-01
2.558346580608934773e-02
-6.762708779080538191e-02
-4.396670135803427970e-02
6.894328289126241960e-02
2.729826420773755202e-02
2.088790426964888536e-02
-8.899861181733792481e-02
6.275562412708951543e-02
6.366974590299089021e-02
1.483893113457282475e-01
7.708603316297535368e-02
1.190424934338331631e-01
1.090970060123784557e-01
7.419783923702757966e-02
3.365689209308186242e-02
9.113452763081374142e-02
1.005154901153769709e-01
-5.201281001512826629e-03
1.855267182640198478e-02
4.314780950489927741e-02
-9.882874941720444506e-02
-8.279358778343309799e-02
-3.428118944517467154e-02
-1.726582222632998542e-01
-1.871576054481034757e-01
-1.015823106583178537e-01
-2.168232807866578016e-01
-7.564580178700952562e-02
-1.440809963298980978e-01
-8.604744612038030260e-02
2.762069534858198339e-02
-1.838842092058433630e-01
-6.127431094830405878e-02
-2.870409938833265451e-02
4.562792255580724182e-02
-1.683051919497403556e-02
1.017299807268300382e-01
1.358053978664289230e-02
1.904453832214490425e-02
-2.646887524834273808e-02
-6.775596155406142518e-02
2.720485278967961495e-02
-5.908648432829156916e-04
5.353772985106385746e-02
-4.387757539160679759e-02
3.884128577922143361e-02
-5.637294712541377623e-03
-9.896933559409258618e-03
1.191493113839489776e-01
2.665429902025533149e-02
-6.999593288355783482e-02
6.127052039442150953e-03
5.065831539124742051e-03
6.220852175953703322e-02
-7.007250760935228306e-02
-1.364131499507331008e-02
-1.060727871999019301e-01
6.687159412530717731e-03
3.430176071378347735e-02
-2.033540266082664583e-02
3.487914323622688662e-02
3.352971303315987334e-02
3.643419075480656272e-02
5.748192957747850773e-01
5.610242892796335479e-01
6.708507495435620527e-01
7.942675546762825167e-01
8.937791231918055246e-01
1.038736197391343818e+00
1.189616282343318510e+00
1.182161888557796026e+00
1.261687299684631558e+00
1.377760769028933296e+00
1.482778964137416056e+00
1.331673449332750891e+00
1.535743792668858410e+00
1.487441582323360212e+00
1.496911033721372242e+00
1.491941978267802726e+00
1.409022012420661163e+00
1.471140736004501237e+00
1.327937065866930277e+00
1.304313242219825364e+00
1.244712161177070397e+00
1.097779520300913303e+00
1.066410289341407358e+00
9.674440411853604260e-01
9.423798802580805045e-01
7.905125634579823757e-01
6.891552823966623498e-01
6.865569223830487733e-01
5.606552911712605614e-01
4.925611379727606182e-02
5.816896985903156903e-02
1.259936929140605122e-01
1.094975924356923203e-01
1.513257070410817529e-01
1.558702818069883089e-01
2.743545559456171401e-01
2.498095637771665101e-01
2.799811663498657510e-01
2.287989666775517850e-01
2.593335291978693391e-01
2.135592045886292034e-01
2.236474079457348996e-01
2.892883358569288133e-01
2.448333982262055897e-01
3.293631880901426445e-01
3.118128155999640994e-01
2.722659985185963971e-01
2.630136292246453289e-01
2.760553601260583578e-01
2.417178853042609987e-01
1.513925464501590934e-01
2.054349035426770165e-01
1.943854369075686539e-01
6.226726183661024372e-02
7.757263435073723234e-02
-1.969827572309701402e-02
1.796207514244797104e-02
1.008741866862978252e-02
-7.813618155327185788e-02
-1.393930731811206525e-01
-1.598396418299936617e-01
-1.262612577481499743e-01
-1.435122096867277874e-01
-1.531750195366791689e-01
-2.631110945555288350e-01
-3.468375968459573855e-01
-2.709359384201803223e-01
-2.561471064298884714e-01
-2.675830768080232902e-01
-3.711142966123039955e-01
-2.271803147238664056e-01
-2.153528077181887657e-01
-2.781189954603613401e-01
-2.438620649648479133e-01
-3.057990681087814355e-01
-2.825448426469955310e-01
-2.023679755747699871e-01
-1.877033942152031842e-01
-1.602743250682046039e-01
-7.316487823546249936e-02
-1.006640908271187046e-01
-4.089150967835739059e-02
-1.276432594565978518e-01
-2.917371054620672421e-02
-1.391045317222513178e-01
-1.261202887704723219e-01
3.049418811876322341e-02
